dt,x,y,position,velocity,acceleration,jerk,heading
0.010000,0.303239,10.485328,0.000050,0.009976,0.997601,99.760121,0.000324
0.010000,0.303244,10.485328,0.000055,0.000497,-0.947946,-194.554756,0.000318
0.010000,0.303254,10.485328,0.000065,0.000993,0.049640,99.758681,0.000307
0.010000,0.303269,10.485328,0.000080,0.001489,0.049612,-0.002881,0.000291
0.010000,0.303289,10.485328,0.000100,0.001985,0.049568,-0.004321,0.000269
0.010000,0.303314,10.485328,0.000124,0.002480,0.049511,-0.005761,0.000242
0.010000,0.303344,10.485328,0.000154,0.002974,0.049439,-0.007201,0.000210
0.010000,0.303378,10.485328,0.000189,0.003468,0.049352,-0.008641,0.000172
0.010000,0.303418,10.485328,0.000228,0.003960,0.049252,-0.010081,0.000128
0.010000,0.303462,10.485328,0.000273,0.004452,0.049136,-0.011520,0.000080
0.010000,0.303512,10.485328,0.000322,0.004942,0.049007,-0.012960,0.000026
0.010000,0.304806,10.485328,0.001616,0.129411,12.446907,1239.790024,6.283152
0.010000,0.307259,10.485328,0.004070,0.245338,11.592728,-85.417910,6.283087
0.010000,0.309917,10.485327,0.006728,0.265778,2.043968,-954.875961,6.283017
0.010000,0.312779,10.485327,0.009590,0.286216,2.043844,-0.012394,6.282942
0.010000,0.315846,10.485326,0.012656,0.306653,2.043693,-0.015117,6.282861
0.010000,0.319116,10.485325,0.015927,0.327073,2.041989,-0.170464,6.282776
0.010000,0.322592,10.485323,0.019402,0.347506,2.043315,0.132659,6.282685
0.010000,0.326271,10.485321,0.023081,0.367938,2.043153,-0.016246,6.282589
0.010000,0.330154,10.485318,0.026965,0.388357,2.041973,-0.117981,6.282487
0.010000,0.334242,10.485315,0.031053,0.408776,2.041818,-0.015464,6.282381
0.010000,0.338534,10.485312,0.035345,0.429201,2.042508,0.068963,6.282269
0.010000,0.343030,10.485307,0.039841,0.449611,2.041010,-0.149783,6.282153
0.010000,0.347731,10.485302,0.044541,0.470022,2.041115,0.010455,6.282031
0.010000,0.352635,10.485296,0.049445,0.490440,2.041771,0.065653,6.281904
0.010000,0.357743,10.485289,0.054554,0.510830,2.039084,-0.268719,6.281773
0.010000,0.363056,10.485281,0.059866,0.531243,2.041206,0.212212,6.281636
0.010000,0.368572,10.485273,0.065383,0.551634,2.039188,-0.201848,6.281495
0.010000,0.374292,10.485262,0.071103,0.572032,2.039713,0.052528,6.281349
0.010000,0.380216,10.485251,0.077027,0.592420,2.038865,-0.084823,6.281198
0.010000,0.386345,10.485238,0.083155,0.612806,2.038574,-0.029072,6.281042
0.010000,0.392676,10.485224,0.089487,0.633187,2.038110,-0.046363,6.280882
0.010000,0.399212,10.485209,0.096023,0.653565,2.037789,-0.032144,6.280717
0.010000,0.405951,10.485192,0.102762,0.673934,2.036929,-0.085979,6.280547
0.010000,0.412894,10.485173,0.109705,0.694308,2.037352,0.042345,6.280373
0.010000,0.420041,10.485152,0.116852,0.714661,2.035326,-0.202697,6.280195
0.010000,0.427391,10.485129,0.124202,0.735028,2.036710,0.138479,6.280011
0.010000,0.434945,10.485105,0.131756,0.755372,2.034403,-0.230735,6.279824
0.010000,0.442702,10.485078,0.139513,0.775722,2.034978,0.057509,6.279632
0.010000,0.450663,10.485049,0.147474,0.796070,2.034825,-0.015292,6.279436
0.010000,0.458827,10.485017,0.155638,0.816393,2.032331,-0.249423,6.279236
0.010000,0.467194,10.484983,0.164005,0.836730,2.033630,0.129868,6.279032
0.010000,0.475764,10.484947,0.172575,0.857059,2.032943,-0.068689,6.278823
0.010000,0.484538,10.484908,0.181349,0.877368,2.030869,-0.207360,6.278611
0.010000,0.493515,10.484866,0.190326,0.897682,2.031423,0.055392,6.278395
0.010000,0.502694,10.484821,0.199506,0.917992,2.030940,-0.048306,6.278174
0.010000,0.512077,10.484773,0.208889,0.938294,2.030219,-0.072082,6.277950
0.010000,0.521663,10.484721,0.218475,0.958577,2.028293,-0.192607,6.277723
0.010000,0.531451,10.484667,0.228263,0.978865,2.028839,0.054560,6.277491
0.010000,0.541443,10.484609,0.238255,0.999146,2.028109,-0.072963,6.277256
0.010000,0.551637,10.484547,0.248449,1.019420,2.027353,-0.075556,6.277018
0.010000,0.562033,10.484482,0.258846,1.039686,2.026589,-0.076409,6.276776
0.010000,0.572633,10.484412,0.269445,1.059941,2.025519,-0.107014,6.276531
0.010000,0.583434,10.484339,0.280247,1.080188,2.024691,-0.082780,6.276282
0.010000,0.594438,10.484262,0.291251,1.100431,2.024342,-0.034973,6.276031
0.010000,0.605645,10.484180,0.302458,1.120666,2.023542,-0.080011,6.275776
0.010000,0.617053,10.484094,0.313867,1.140894,2.022733,-0.080898,6.275518
0.010000,0.628664,10.484004,0.325478,1.161113,2.021915,-0.081792,6.275258
0.010000,0.640477,10.483908,0.337291,1.181324,2.021088,-0.082694,6.274994
0.010000,0.652492,10.483808,0.349307,1.201526,2.020252,-0.083604,6.274728
0.010000,0.664708,10.483703,0.361524,1.221720,2.019406,-0.084523,6.274459
0.010000,0.677127,10.483593,0.373943,1.241906,2.018552,-0.085451,6.274188
0.010000,0.689747,10.483478,0.386564,1.262083,2.017688,-0.086389,6.273914
0.010000,0.702569,10.483357,0.399386,1.282251,2.016815,-0.087336,6.273638
0.010000,0.715593,10.483231,0.412410,1.302410,2.015932,-0.088294,6.273359
0.010000,0.728818,10.483100,0.425636,1.322561,2.015039,-0.089262,6.273079
0.010000,0.742244,10.482962,0.439063,1.342702,2.014137,-0.090242,6.272796
0.010000,0.755872,10.482818,0.452691,1.362834,2.013224,-0.091233,6.272511
0.010000,0.769700,10.482669,0.466521,1.382955,2.012066,-0.115845,6.272225
0.010000,0.783730,10.482513,0.480551,1.403064,2.010873,-0.119342,6.271937
0.010000,0.797961,10.482351,0.494783,1.423167,2.010353,-0.051909,6.271647
0.010000,0.812392,10.482182,0.509216,1.443261,2.009402,-0.095164,6.271355
0.010000,0.827025,10.482007,0.523849,1.463346,2.008440,-0.096218,6.271062
0.010000,0.841858,10.481825,0.538683,1.483420,2.007467,-0.097287,6.270768
0.010000,0.856892,10.481636,0.553718,1.503476,2.005621,-0.184590,6.270473
0.010000,0.872126,10.481440,0.568953,1.523528,2.005179,-0.044225,6.270176
0.010000,0.887560,10.481237,0.584389,1.543572,2.004419,-0.075921,6.269879
0.010000,0.903195,10.481027,0.600025,1.563607,2.003404,-0.101548,6.269580
0.010000,0.919029,10.480809,0.615861,1.583618,2.001142,-0.226188,6.269281
0.010000,0.935064,10.480583,0.631898,1.603629,2.001137,-0.000477,6.268982
0.010000,0.951299,10.480350,0.648134,1.623632,2.000232,-0.090512,6.268682
0.010000,0.967733,10.480110,0.664570,1.643612,1.998022,-0.220978,6.268381
0.010000,0.984367,10.479861,0.681206,1.663588,1.997629,-0.039359,6.268080
0.010000,1.001201,10.479604,0.698042,1.683558,1.996963,-0.066542,6.267779
0.010000,1.018234,10.479339,0.715077,1.703499,1.994148,-0.281555,6.267478
0.010000,1.035466,10.479066,0.732311,1.723446,1.994695,0.054708,6.267178
0.010000,1.052897,10.478784,0.749745,1.743372,1.992594,-0.210088,6.266877
0.010000,1.070528,10.478494,0.767378,1.763288,1.991570,-0.102411,6.266577
0.010000,1.088357,10.478195,0.785210,1.783195,1.990687,-0.088321,6.266277
0.010000,1.106385,10.477887,0.803240,1.803082,1.988717,-0.196962,6.265978
0.010000,1.124612,10.477571,0.821470,1.822966,1.988444,-0.027330,6.265680
0.010000,1.143038,10.477246,0.839898,1.842827,1.986115,-0.232842,6.265383
0.010000,1.161662,10.476911,0.858525,1.862686,1.985884,-0.023178,6.265087
0.010000,1.180484,10.476568,0.877350,1.882524,1.983743,-0.214044,6.264792
0.010000,1.199504,10.476215,0.896374,1.902354,1.983025,-0.071836,6.264498
0.010000,1.218722,10.475853,0.915596,1.922170,1.981578,-0.144654,6.264206
0.010000,1.238138,10.475482,0.935015,1.941969,1.979886,-0.169189,6.263916
0.010000,1.257752,10.475101,0.954633,1.961763,1.979447,-0.043950,6.263627
0.010000,1.277564,10.474711,0.974448,1.981531,1.976790,-0.265706,6.263340
0.010000,1.297573,10.474311,0.994461,2.001296,1.976505,-0.028471,6.263056
0.010000,1.317779,10.473901,1.014672,2.021047,1.975094,-0.141126,6.262773
0.010000,1.338183,10.473481,1.035079,2.040774,1.972707,-0.238644,6.262493
0.010000,1.358783,10.473052,1.055684,2.060498,1.972352,-0.035518,6.262216
0.010000,1.379580,10.472613,1.076486,2.080206,1.970868,-0.148443,6.261941
0.010000,1.400575,10.472164,1.097485,2.099893,1.968648,-0.221942,6.261669
0.010000,1.421765,10.471705,1.118681,2.119571,1.967799,-0.084945,6.261400
0.010000,1.443153,10.471237,1.140073,2.139235,1.966464,-0.133510,6.261134
0.010000,1.464736,10.470758,1.161662,2.158885,1.964948,-0.151536,6.260872
0.010000,1.486516,10.470269,1.183447,2.178515,1.962967,-0.198147,6.260613
0.010000,1.508491,10.469770,1.205429,2.198133,1.961801,-0.116558,6.260357
0.010000,1.530663,10.469261,1.227606,2.217737,1.960432,-0.136902,6.260106
0.010000,1.553030,10.468742,1.249979,2.237326,1.958882,-0.155041,6.259858
0.010000,1.575593,10.468213,1.272548,2.256899,1.957323,-0.155899,6.259615
0.010000,1.598351,10.467673,1.295313,2.276456,1.955755,-0.156785,6.259376
0.010000,1.621305,10.467124,1.318273,2.295997,1.954046,-0.170946,6.259141
0.010000,1.644453,10.466565,1.341428,2.315522,1.952495,-0.155086,6.258911
0.010000,1.667796,10.465995,1.364778,2.335032,1.951050,-0.144472,6.258686
0.010000,1.691334,10.465416,1.388324,2.354527,1.949440,-0.161002,6.258466
0.010000,1.715067,10.464827,1.412064,2.374005,1.947820,-0.162046,6.258251
0.010000,1.738994,10.464227,1.435998,2.393467,1.946188,-0.163123,6.258042
0.010000,1.763116,10.463618,1.460128,2.412912,1.944546,-0.164235,6.257838
0.010000,1.787431,10.462999,1.484451,2.432341,1.942892,-0.165382,6.257639
0.010000,1.811941,10.462371,1.508969,2.451754,1.941227,-0.166565,6.257447
0.010000,1.836644,10.461732,1.533680,2.471149,1.939549,-0.167785,6.257260
0.010000,1.861541,10.461084,1.558585,2.490528,1.937858,-0.169043,6.257080
0.010000,1.886631,10.460427,1.583684,2.509889,1.936155,-0.170339,6.256907
0.010000,1.911915,10.459760,1.608977,2.529234,1.934438,-0.171674,6.256740
0.010000,1.937391,10.459085,1.634462,2.548560,1.932642,-0.179614,6.256580
0.010000,1.963061,10.458399,1.660141,2.567868,1.930845,-0.179706,6.256427
0.010000,1.988923,10.457705,1.686012,2.587160,1.929199,-0.164564,6.256281
0.010000,2.014978,10.457002,1.712077,2.606435,1.927429,-0.177024,6.256142
0.010000,2.041225,10.456291,1.738334,2.625691,1.925643,-0.178565,6.256011
0.010000,2.067665,10.455570,1.764783,2.644930,1.923842,-0.180150,6.255888
0.010000,2.094296,10.454842,1.791424,2.664149,1.921997,-0.184505,6.255773
0.010000,2.121120,10.454105,1.818258,2.683349,1.919995,-0.200169,6.255666
0.010000,2.148135,10.453360,1.845283,2.702533,1.918358,-0.163726,6.255568
0.010000,2.175341,10.452607,1.872500,2.721698,1.916493,-0.186535,6.255478
0.010000,2.202739,10.451846,1.899909,2.740844,1.914600,-0.189209,6.255397
0.010000,2.230328,10.451079,1.927508,2.759969,1.912530,-0.207081,6.255325
0.010000,2.258108,10.450304,1.955299,2.779077,1.910823,-0.170703,6.255262
0.010000,2.286079,10.449522,1.983281,2.798166,1.908886,-0.193661,6.255209
0.010000,2.314240,10.448733,2.011453,2.817235,1.906832,-0.205393,6.255165
0.010000,2.342592,10.447938,2.039816,2.836284,1.904968,-0.186397,6.255131
0.010000,2.371134,10.447136,2.068369,2.855314,1.903007,-0.196073,6.255107
0.010000,2.399866,10.446329,2.097112,2.874324,1.900958,-0.204933,6.255094
0.010000,2.428787,10.445516,2.126046,2.893314,1.899014,-0.194408,6.255091
0.010000,2.457899,10.444699,2.155168,2.912284,1.896982,-0.203216,6.255099
0.010000,2.487200,10.443876,2.184481,2.931234,1.894958,-0.202432,6.255117
0.010000,2.516690,10.443048,2.213982,2.950162,1.892880,-0.207707,6.255147
0.010000,2.546369,10.442216,2.243673,2.969071,1.890891,-0.198922,6.255189
0.010000,2.576237,10.441381,2.273553,2.987958,1.888689,-0.220177,6.255242
0.010000,2.606293,10.440541,2.303621,3.006826,1.886771,-0.191849,6.255306
0.010000,2.636538,10.439699,2.333878,3.025670,1.884444,-0.232670,6.255383
0.010000,2.666971,10.438854,2.364323,3.044496,1.882553,-0.189164,6.255473
0.010000,2.697593,10.438007,2.394956,3.063298,1.880180,-0.237265,6.255574
0.010000,2.728402,10.437158,2.425776,3.082080,1.878192,-0.198776,6.255689
0.010000,2.759398,10.436307,2.456785,3.100839,1.875931,-0.226085,6.255817
0.010000,2.790583,10.435456,2.487980,3.119575,1.873646,-0.228531,6.255958
0.010000,2.821954,10.434604,2.519363,3.138293,1.871733,-0.191328,6.256112
0.010000,2.853512,10.433752,2.550933,3.156984,1.869124,-0.260872,6.256280
0.010000,2.885257,10.432900,2.582690,3.175655,1.867112,-0.201246,6.256462
0.010000,2.917189,10.432050,2.614633,3.194304,1.864883,-0.222822,6.256659
0.010000,2.949307,10.431201,2.646762,3.212927,1.862333,-0.255012,6.256870
0.010000,2.981611,10.430354,2.679077,3.231529,1.860221,-0.211256,6.257095
0.010000,3.014101,10.429510,2.711578,3.250110,1.858063,-0.215807,6.257336
0.010000,3.046777,10.428670,2.744265,3.268664,1.855395,-0.266776,6.257592
0.010000,3.079639,10.427833,2.777137,3.287194,1.853038,-0.235648,6.257863
0.010000,3.112685,10.427001,2.810194,3.305704,1.850952,-0.208644,6.258151
0.010000,3.145917,10.426173,2.843436,3.324189,1.848512,-0.244038,6.258454
0.010000,3.179333,10.425352,2.876862,3.342648,1.845882,-0.262972,6.258774
0.010000,3.212934,10.424537,2.910473,3.361082,1.843455,-0.242672,6.259110
0.010000,3.246719,10.423730,2.944268,3.379492,1.841011,-0.244446,6.259463
0.010000,3.280689,10.422930,2.978247,3.397879,1.838616,-0.239489,6.259833
0.010000,3.314842,10.422139,3.012409,3.416242,1.836371,-0.224460,6.260221
0.010000,3.349179,10.421357,3.046755,3.434578,1.833541,-0.282975,6.260626
0.010000,3.383699,10.420585,3.081284,3.452888,1.831013,-0.252815,6.261049
0.010000,3.418403,10.419825,3.115996,3.471172,1.828464,-0.254931,6.261490
0.010000,3.453289,10.419076,3.150890,3.489431,1.825893,-0.257116,6.261950
0.010000,3.488358,10.418339,3.185967,3.507664,1.823299,-0.259369,6.262429
0.010000,3.523609,10.417616,3.221225,3.525871,1.820682,-0.261690,6.262926
0.010000,3.559042,10.416907,3.256666,3.544052,1.818041,-0.264077,6.263444
0.010000,3.594658,10.416214,3.292288,3.562205,1.815376,-0.266531,6.263980
0.010000,3.630455,10.415536,3.328091,3.580332,1.812686,-0.269050,6.264537
0.010000,3.666433,10.414875,3.364076,3.598432,1.809969,-0.271633,6.265114
0.010000,3.702592,10.414233,3.400241,3.616504,1.807227,-0.274278,6.265711
0.010000,3.738932,10.413609,3.436586,3.634549,1.804457,-0.276985,6.266330
0.010000,3.775453,10.413005,3.473112,3.652565,1.801659,-0.279751,6.266969
0.010000,3.812154,10.412422,3.509817,3.670554,1.798833,-0.282574,6.267630
0.010000,3.849035,10.411860,3.546703,3.688514,1.795979,-0.285453,6.268313
0.010000,3.886095,10.411322,3.583767,3.706448,1.793405,-0.257349,6.269017
0.010000,3.923335,10.410808,3.621011,3.724353,1.790592,-0.281299,6.269745
0.010000,3.960754,10.410319,3.658433,3.742227,1.787343,-0.324947,6.270494
0.010000,3.998352,10.409856,3.696034,3.760071,1.784372,-0.297111,6.271267
0.010000,4.036129,10.409421,3.733812,3.777884,1.781369,-0.300248,6.272064
0.010000,4.074083,10.409014,3.771769,3.795669,1.778479,-0.289054,6.272883
0.010000,4.112216,10.408638,3.809903,3.813432,1.776336,-0.214274,6.273727
0.010000,4.150526,10.408292,3.848215,3.831155,1.772294,-0.404224,6.274596
0.010000,4.189013,10.407978,3.886703,3.848847,1.769165,-0.312886,6.275488
0.010000,4.227677,10.407698,3.925369,3.866513,1.766547,-0.261812,6.276406
0.010000,4.266518,10.407453,3.964210,3.884152,1.763921,-0.262563,6.277350
0.010000,4.305535,10.407244,4.003228,3.901749,1.759714,-0.420735,6.278318
0.010000,4.344727,10.407073,4.042421,3.919318,1.756944,-0.277014,6.279313
0.010000,4.384096,10.406941,4.081789,3.936865,1.754679,-0.226473,6.280335
0.010000,4.423639,10.406849,4.121333,3.954365,1.749972,-0.470738,6.281383
0.010000,4.463358,10.406798,4.161051,3.971844,1.747916,-0.205547,6.282458
0.010000,4.503251,10.406791,4.200944,3.989287,1.744298,-0.361778,0.000375
0.010000,4.543317,10.406829,4.241011,4.006691,1.740376,-0.392234,0.001505
0.010000,4.583558,10.406913,4.281252,4.024077,1.738662,-0.171421,0.002664
0.010000,4.623972,10.407044,4.321666,4.041409,1.733121,-0.554064,0.003851
0.010000,4.664559,10.407225,4.362253,4.058733,1.732437,-0.068459,0.005066
0.010000,4.705318,10.407457,4.403013,4.075995,1.726227,-0.620954,0.006312
0.010000,4.746250,10.407741,4.443946,4.093251,1.725595,-0.063194,0.007586
0.010000,4.787353,10.408080,4.485050,4.110445,1.719431,-0.616400,0.008891
0.010000,4.828627,10.408474,4.526327,4.127632,1.718682,-0.074893,0.010226
0.010000,4.870072,10.408926,4.567774,4.144761,1.712852,-0.582983,0.011592
0.010000,4.911688,10.409438,4.609393,4.161870,1.710911,-0.194123,0.012989
0.010000,4.953473,10.410010,4.651182,4.178937,1.706748,-0.416364,0.014417
0.010000,4.995428,10.410646,4.693142,4.195963,1.702556,-0.419176,0.015877
0.010000,5.037552,10.411346,4.735272,4.212973,1.700986,-0.156976,0.017370
0.010000,5.079844,10.412113,4.777571,4.229926,1.695308,-0.567822,0.018895
0.010000,5.122305,10.412948,4.820039,4.246848,1.692179,-0.312883,0.020454
0.010000,5.164933,10.413854,4.862677,4.263746,1.689848,-0.233061,0.022046
0.010000,5.207727,10.414832,4.905483,4.280592,1.684577,-0.527152,0.023671
0.010000,5.250688,10.415885,4.948457,4.297402,1.680980,-0.359674,0.025331
0.010000,5.293816,10.417014,4.991599,4.314187,1.678575,-0.240491,0.027026
0.010000,5.337108,10.418222,5.034908,4.330928,1.674046,-0.452954,0.028756
0.010000,5.380565,10.419510,5.078384,4.347627,1.669928,-0.411719,0.030521
0.010000,5.424187,10.420881,5.122027,4.364290,1.666231,-0.369759,0.032323
0.010000,5.467971,10.422337,5.165836,4.380917,1.662727,-0.350396,0.034160
0.010000,5.511920,10.423880,5.209811,4.397513,1.659634,-0.309318,0.036034
0.010000,5.556030,10.425512,5.253952,4.414062,1.654878,-0.475596,0.037946
0.010000,5.600302,10.427236,5.298258,4.430573,1.651087,-0.379097,0.039895
0.010000,5.644735,10.429054,5.342728,4.447046,1.647275,-0.381203,0.041882
0.010000,5.689329,10.430968,5.387363,4.463480,1.643442,-0.383227,0.043908
0.010000,5.734083,10.432980,5.432162,4.479876,1.639591,-0.385154,0.045972
0.010000,5.778995,10.435094,5.477124,4.496233,1.635721,-0.386970,0.048076
0.010000,5.824066,10.437310,5.522250,4.512551,1.631835,-0.388662,0.050219
0.010000,5.869295,10.439633,5.567538,4.528831,1.627933,-0.390213,0.052403
0.010000,5.914681,10.442064,5.612989,4.545071,1.624016,-0.391607,0.054627
0.010000,5.960223,10.444606,5.658601,4.561272,1.620088,-0.392829,0.056892
0.010000,6.005920,10.447261,5.704376,4.577433,1.616150,-0.393860,0.059199
0.010000,6.051772,10.450033,5.750311,4.593555,1.612203,-0.394683,0.061547
0.010000,6.097777,10.452923,5.796408,4.609638,1.608250,-0.395279,0.063938
0.010000,6.143936,10.455935,5.842664,4.625681,1.604294,-0.395629,0.066372
0.010000,6.190247,10.459070,5.889081,4.641684,1.600336,-0.395713,0.068848
0.010000,6.236709,10.462333,5.935658,4.657648,1.596381,-0.395510,0.071368
0.010000,6.283321,10.465725,5.982394,4.673572,1.592431,-0.394999,0.073933
0.010000,6.330083,10.469250,6.029288,4.689457,1.588490,-0.394159,0.076541
0.010000,6.376994,10.472910,6.076341,4.705303,1.584560,-0.392967,0.079195
0.010000,6.424052,10.476708,6.123552,4.721116,1.581357,-0.320316,0.081893
0.010000,6.471257,10.480648,6.170921,4.736886,1.577005,-0.435169,0.084638
0.010000,6.518607,10.484731,6.218447,4.752615,1.572905,-0.410046,0.087429
0.010000,6.566102,10.488962,6.266130,4.768306,1.569051,-0.385424,0.090266
0.010000,6.613741,10.493343,6.313970,4.783961,1.565473,-0.357743,0.093150
0.010000,6.661522,10.497877,6.361966,4.799584,1.562336,-0.313726,0.096081
0.010000,6.709444,10.502568,6.410117,4.815161,1.557677,-0.465840,0.099061
0.010000,6.757507,10.507418,6.458424,4.830700,1.553968,-0.370933,0.102088
0.010000,6.805709,10.512431,6.506887,4.846213,1.551217,-0.275137,0.105164
0.010000,6.854050,10.517610,6.555503,4.861682,1.546931,-0.428580,0.108289
0.010000,6.902527,10.522958,6.604274,4.877113,1.543097,-0.383359,0.111463
0.010000,6.951139,10.528478,6.653200,4.892519,1.540590,-0.250717,0.114688
0.010000,6.999887,10.534174,6.702278,4.907881,1.536252,-0.433810,0.117962
0.010000,7.048767,10.540049,6.751511,4.923212,1.533095,-0.315702,0.121287
0.010000,7.097779,10.546107,6.800896,4.938513,1.530107,-0.298836,0.124662
0.010000,7.146922,10.552350,6.850434,4.953776,1.526220,-0.388713,0.128089
0.010000,7.196194,10.558783,6.900124,4.969014,1.523884,-0.233592,0.131567
0.010000,7.245594,10.565409,6.949966,4.984214,1.519979,-0.390503,0.135098
0.010000,7.295120,10.572231,6.999960,4.999390,1.517607,-0.237136,0.138680
0.010000,7.344771,10.579253,7.050105,5.014532,1.514217,-0.338989,0.142315
0.010000,7.394546,10.586478,7.100402,5.029650,1.511762,-0.245556,0.146003
0.010000,7.444443,10.593911,7.150849,5.044738,1.508821,-0.294096,0.149744
0.010000,7.494460,10.601554,7.201447,5.059801,1.506310,-0.251141,0.153539
0.010000,7.544597,10.609412,7.252195,5.074840,1.503833,-0.247638,0.157387
0.010000,7.594850,10.617487,7.303094,5.089854,1.501434,-0.239940,0.161289
0.010000,7.645220,10.625785,7.354142,5.104846,1.499152,-0.228203,0.165245
0.010000,7.695704,10.634307,7.405340,5.119819,1.497334,-0.181800,0.169256
0.010000,7.746300,10.643060,7.456688,5.134767,1.494798,-0.253601,0.173321
0.010000,7.797007,10.652045,7.508185,5.149702,1.493464,-0.133324,0.177442
0.010000,7.847823,10.661267,7.559831,5.164621,1.491984,-0.148016,0.181617
0.010000,7.898747,10.670730,7.611627,5.179517,1.489610,-0.237419,0.185847
0.010000,7.949776,10.680437,7.663571,5.194407,1.488976,-0.063437,0.190133
0.010000,8.000908,10.690393,7.715664,5.209287,1.487991,-0.098487,0.194475
0.010000,8.052143,10.700601,7.767905,5.224154,1.486666,-0.132534,0.198871
0.010000,8.103477,10.711066,7.820295,5.239007,1.485349,-0.131625,0.203324
0.010000,8.154910,10.721790,7.872834,5.253863,1.485577,0.022803,0.207832
0.010000,8.206438,10.732779,7.925521,5.268715,1.485212,-0.036573,0.212396
0.010000,8.258061,10.744036,7.978357,5.283566,1.485044,-0.016749,0.217016
0.010000,8.309775,10.755565,8.031341,5.298407,1.484177,-0.086698,0.221692
0.010000,8.361580,10.767370,8.084473,5.313256,1.484835,0.065775,0.226423
0.010000,8.413472,10.779456,8.137754,5.328113,1.485748,0.091308,0.231210
0.010000,8.465450,10.791825,8.191184,5.342978,1.486476,0.072809,0.236053
0.010000,8.517512,10.804483,8.244763,5.357852,1.487445,0.096864,0.240951
0.010000,8.569656,10.817433,8.298490,5.372739,1.488662,0.121752,0.245904
0.010000,8.621878,10.830679,8.352366,5.387640,1.490137,0.147466,0.250913
0.010000,8.674178,10.844225,8.406392,5.402559,1.491877,0.173998,0.255977
0.010000,8.726553,10.858075,8.460567,5.417498,1.493890,0.201337,0.261095
0.010000,8.779000,10.872234,8.514892,5.432454,1.495599,0.170877,0.266268
0.010000,8.831517,10.886705,8.569366,5.447443,1.498872,0.327258,0.271496
0.010000,8.884102,10.901493,8.623991,5.462461,1.501803,0.293100,0.276777
0.010000,8.936752,10.916601,8.678766,5.477511,1.505013,0.321015,0.282112
0.010000,8.989465,10.932033,8.733692,5.492596,1.508534,0.352143,0.287500
0.010000,9.042239,10.947794,8.788769,5.507720,1.512373,0.383932,0.292941
0.010000,9.095071,10.963888,8.843998,5.522885,1.516537,0.416343,0.298434
0.010000,9.147959,10.980317,8.899379,5.538094,1.520843,0.430606,0.303979
0.010000,9.200900,10.997088,8.954912,5.553343,1.524892,0.404875,0.309575
0.010000,9.253891,11.014202,9.010599,5.568650,1.530683,0.579179,0.315222
0.010000,9.306930,11.031665,9.066439,5.584011,1.536169,0.548506,0.320919
0.010000,9.359941,11.049455,9.122355,5.591585,0.757395,-77.877315,0.326658
0.010000,9.412760,11.067520,9.178177,5.582277,-0.930840,-168.823526,0.332420
0.010000,9.465289,11.085824,9.233804,5.562688,-1.958840,-102.800059,0.338193
0.010000,9.517516,11.104362,9.289224,5.541944,-2.074467,-11.562648,0.343974
0.010000,9.569441,11.123132,9.344437,5.521314,-2.063013,1.145439,0.349763
0.010000,9.621063,11.142132,9.399445,5.500798,-2.051571,1.144169,0.355559
0.010000,9.672384,11.161358,9.454249,5.480396,-2.040144,1.142694,0.361359
0.010000,9.723402,11.180810,9.508850,5.460109,-2.028733,1.141066,0.367163
0.010000,9.774119,11.200485,9.563249,5.439936,-2.017340,1.139341,0.372969
0.010000,9.824534,11.220381,9.617448,5.419876,-2.005964,1.137573,0.378777
0.010000,9.874648,11.240494,9.671447,5.399930,-1.994606,1.135822,0.384584
0.010000,9.924460,11.260824,9.725248,5.380072,-1.985811,0.879514,0.390390
0.010000,9.973971,11.281366,9.778851,5.360319,-1.975264,1.054633,0.396194
0.010000,10.023181,11.302119,9.832258,5.340701,-1.961799,1.346507,0.401995
0.010000,10.072090,11.323080,9.885470,5.321195,-1.950583,1.121621,0.407790
0.010000,10.120700,11.344247,9.938488,5.301802,-1.939377,1.120635,0.413580
0.010000,10.169009,11.365616,9.991313,5.282455,-1.934701,0.467539,0.419363
0.010000,10.217018,11.387186,10.043945,5.263236,-1.921904,1.279738,0.425138
0.010000,10.264729,11.408953,10.096387,5.244162,-1.907378,1.452601,0.430903
0.010000,10.312141,11.430914,10.148638,5.225153,-1.900930,0.644851,0.436658
0.010000,10.359255,11.453067,10.200700,5.206195,-1.895796,0.513335,0.442402
0.010000,10.406071,11.475409,10.252574,5.187436,-1.875859,1.993672,0.448134
0.010000,10.452590,11.497938,10.304261,5.168668,-1.876775,-0.091523,0.453852
0.010000,10.498812,11.520649,10.355762,5.150051,-1.861674,1.510028,0.459555
0.010000,10.544739,11.543540,10.407077,5.131528,-1.852307,0.936780,0.465243
0.010000,10.590369,11.566609,10.458207,5.113038,-1.849091,0.321517,0.470915
0.010000,10.635706,11.589852,10.509154,5.094714,-1.832312,1.677912,0.476570
0.010000,10.680747,11.613266,10.559918,5.076387,-1.832764,-0.045135,0.482206
0.010000,10.725496,11.636849,10.610500,5.058213,-1.817394,1.536979,0.487823
0.010000,10.769951,11.660596,10.660901,5.040093,-1.811975,0.541877,0.493420
0.010000,10.814115,11.684506,10.711121,5.022011,-1.808168,0.380692,0.498996
0.010000,10.857987,11.708575,10.761163,5.004118,-1.789301,1.886744,0.504551
0.010000,10.901569,11.732799,10.811024,4.986132,-1.798617,-0.931582,0.510083
0.010000,10.944860,11.757176,10.860707,4.968336,-1.779666,1.895071,0.515592
0.010000,10.987864,11.781703,10.910214,4.950631,-1.770464,0.920148,0.521077
0.010000,11.030579,11.806377,10.959542,4.932884,-1.774649,-0.418490,0.526537
0.010000,11.073006,11.831193,11.008695,4.915241,-1.764304,1.034562,0.531972
0.010000,11.115148,11.856150,11.057672,4.897710,-1.753134,1.116975,0.537380
0.010000,11.157004,11.881244,11.106474,4.880230,-1.747999,0.513538,0.542762
0.010000,11.198576,11.906472,11.155102,4.862799,-1.743117,0.488108,0.548117
0.010000,11.239864,11.931830,11.203556,4.845323,-1.747550,-0.443296,0.553443
0.010000,11.280869,11.957316,11.251836,4.828000,-1.732334,1.521597,0.558741
0.010000,11.321593,11.982926,11.299943,4.810722,-1.727775,0.455908,0.564010
0.010000,11.362037,12.008657,11.347878,4.793489,-1.723352,0.442353,0.569250
0.010000,11.402200,12.034506,11.395641,4.776298,-1.719052,0.429976,0.574459
0.010000,11.442086,12.060470,11.443232,4.759150,-1.714864,0.418808,0.579637
0.010000,11.481694,12.086545,11.490653,4.742042,-1.710775,0.408874,0.584785
0.010000,11.515925,12.109318,11.531767,4.111426,-63.061561,-6135.078609,0.589359
0.010000,11.554721,12.135412,11.578522,4.675505,56.407914,11946.947496,0.594797
0.010000,11.593357,12.161699,11.625252,4.673058,-0.244709,-5665.262271,0.600044
0.010000,11.631835,12.188169,11.671956,4.670392,-0.266677,-2.196806,0.605103
0.010000,11.670157,12.214814,11.718631,4.667497,-0.289428,-2.275083,0.609975
0.010000,11.708326,12.241624,11.765275,4.664373,-0.312458,-2.303027,0.614663
0.010000,11.746344,12.268590,11.811885,4.661030,-0.334282,-2.182387,0.619169
0.010000,11.784214,12.295702,11.858460,4.657449,-0.358044,-2.376237,0.623497
0.010000,11.821937,12.322953,11.904996,4.653642,-0.380712,-2.266785,0.627648
0.010000,11.859517,12.350332,11.951492,4.649609,-0.403353,-2.264027,0.631625
0.010000,11.896955,12.377833,11.997946,4.645340,-0.426910,-2.355697,0.635431
0.010000,11.934255,12.405446,12.044354,4.640850,-0.448929,-2.201943,0.639067
0.010000,11.971419,12.433163,12.090716,4.636130,-0.472009,-2.308007,0.642538
0.010000,12.008449,12.460976,12.137027,4.631186,-0.494410,-2.240117,0.645844
0.010000,12.045348,12.488878,12.183288,4.626027,-0.515920,-2.150994,0.648989
0.010000,12.082118,12.516859,12.229494,4.620635,-0.539153,-2.323291,0.651974
0.010000,12.118762,12.544914,12.275644,4.615037,-0.559830,-2.067740,0.654803
0.010000,12.155283,12.573033,12.321737,4.609225,-0.581184,-2.135382,0.657477
0.010000,12.191683,12.601211,12.367769,4.603200,-0.602544,-2.135943,0.659999
0.010000,12.227965,12.629439,12.413738,4.596963,-0.623658,-2.111454,0.662371
0.010000,12.264132,12.657711,12.459644,4.590528,-0.643499,-1.984115,0.664595
0.010000,12.300185,12.686019,12.505482,4.583892,-0.663609,-2.010955,0.666674
0.010000,12.336127,12.714358,12.551253,4.577059,-0.683344,-1.973484,0.668609
0.010000,12.371962,12.742720,12.596953,4.570032,-0.702700,-1.935617,0.670403
0.010000,12.407691,12.771099,12.642582,4.562815,-0.721676,-1.897583,0.672058
0.010000,12.443317,12.799488,12.688136,4.555412,-0.740272,-1.859591,0.673576
0.010000,12.478843,12.827882,12.733614,4.547827,-0.758490,-1.821826,0.674958
0.010000,12.514271,12.856273,12.779015,4.540064,-0.776335,-1.784453,0.676208
0.010000,12.549603,12.884657,12.824336,4.532126,-0.793811,-1.747619,0.677326
0.010000,12.584842,12.913028,12.869576,4.524017,-0.810925,-1.711455,0.678314
0.010000,12.619990,12.941379,12.914733,4.515740,-0.827686,-1.676071,0.679176
0.010000,12.655051,12.969705,12.959806,4.507299,-0.844102,-1.641567,0.679911
0.010000,12.690025,12.998000,13.004793,4.498695,-0.860367,-1.626541,0.680522
0.010000,12.724915,13.026260,13.049693,4.489936,-0.875904,-1.553730,0.681011
0.010000,12.759725,13.054478,13.094503,4.481023,-0.891282,-1.537733,0.681379
0.010000,12.794455,13.082650,13.139223,4.471959,-0.906407,-1.512538,0.681629
0.010000,12.829108,13.110770,13.183850,4.462747,-0.921250,-1.484298,0.681760
0.010000,12.863687,13.138835,13.228384,4.453391,-0.935609,-1.435896,0.681777
0.010000,12.898192,13.166837,13.272823,4.443892,-0.949826,-1.421683,0.681678
0.010000,12.932628,13.194774,13.317165,4.434256,-0.963653,-1.382700,0.681468
0.010000,12.966995,13.222640,13.361410,4.424482,-0.977396,-1.374269,0.681145
0.010000,13.001295,13.250431,13.405556,4.414577,-0.990473,-1.307725,0.680714
0.010000,13.035531,13.278142,13.449601,4.404538,-1.003934,-1.346141,0.680173
0.010000,13.069705,13.305769,13.493545,4.394375,-1.016318,-1.238395,0.679526
0.010000,13.103817,13.333307,13.537386,4.384081,-1.029401,-1.308305,0.678773
0.010000,13.137871,13.360752,13.581123,4.373666,-1.041448,-1.204689,0.677916
0.010000,13.171867,13.388100,13.624754,4.363128,-1.053761,-1.231260,0.676956
0.010000,13.205808,13.415348,13.668279,4.352468,-1.066011,-1.225046,0.675895
0.010000,13.239695,13.442490,13.711696,4.341696,-1.077194,-1.118265,0.674733
0.010000,13.273530,13.469523,13.755004,4.330804,-1.089284,-1.209039,0.673472
0.010000,13.307315,13.496443,13.798201,4.319795,-1.100845,-1.156084,0.672114
0.010000,13.341050,13.523246,13.841288,4.308674,-1.112065,-1.122029,0.670659
0.010000,13.374737,13.549929,13.884263,4.297447,-1.122735,-1.067007,0.669108
0.010000,13.408378,13.576488,13.927124,4.286104,-1.134318,-1.158300,0.667464
0.010000,13.441973,13.602919,13.969870,4.274652,-1.145224,-1.090611,0.665726
0.010000,13.475525,13.629218,14.012501,4.263091,-1.156024,-1.079908,0.663897
0.010000,13.509034,13.655383,14.055015,4.251424,-1.166729,-1.070558,0.661978
0.010000,13.542501,13.681410,14.097412,4.239651,-1.177354,-1.062535,0.659968
0.010000,13.575928,13.707296,14.139690,4.227772,-1.187913,-1.055810,0.657871
0.010000,13.609315,13.733036,14.181848,4.215787,-1.198416,-1.050350,0.655687
0.010000,13.642664,13.758629,14.223884,4.203699,-1.208877,-1.046117,0.653417
0.010000,13.675975,13.784070,14.265800,4.191506,-1.219308,-1.043071,0.651061
0.010000,13.709249,13.809357,14.307592,4.179208,-1.229720,-1.041166,0.648623
0.010000,13.742486,13.834487,14.349260,4.166807,-1.240123,-1.040354,0.646101
0.010000,13.775688,13.859456,14.390803,4.154302,-1.250529,-1.040583,0.643499
0.010000,13.808855,13.884262,14.432220,4.141692,-1.260947,-1.041796,0.640816
0.010000,13.841987,13.908901,14.473509,4.128978,-1.271386,-1.043932,0.638054
0.010000,13.875085,13.933372,14.514671,4.116167,-1.281115,-0.972844,0.635214
0.010000,13.908149,13.957670,14.555704,4.103249,-1.291864,-1.074893,0.632297
0.010000,13.941180,13.981794,14.596606,4.090221,-1.302754,-1.089076,0.629304
0.010000,13.974177,14.005741,14.637377,4.077087,-1.313363,-1.060878,0.626237
0.010000,14.007141,14.029508,14.678015,4.063862,-1.322501,-0.913792,0.623096
0.010000,14.040072,14.053092,14.718520,4.050518,-1.334463,-1.196215,0.619884
0.010000,14.072970,14.076491,14.758891,4.037066,-1.345216,-1.075321,0.616600
0.010000,14.105835,14.099703,14.799126,4.023522,-1.354411,-0.919416,0.613246
0.010000,14.138666,14.122725,14.839225,4.009850,-1.367149,-1.273842,0.609823
0.010000,14.171463,14.145554,14.879186,3.996086,-1.376382,-0.923251,0.606333
0.010000,14.204227,14.168189,14.919008,3.982199,-1.388700,-1.231848,0.602777
0.010000,14.236956,14.190627,14.958690,3.968213,-1.398603,-0.990287,0.599155
0.010000,14.269651,14.212866,14.998231,3.954103,-1.411025,-1.242228,0.595469
0.010000,14.302310,14.234904,15.037630,3.939896,-1.420714,-0.968916,0.591721
0.010000,14.334933,14.256739,15.076885,3.925558,-1.433768,-1.305363,0.587911
0.010000,14.367519,14.278368,15.115997,3.911119,-1.443915,-1.014741,0.584041
0.010000,14.400068,14.299790,15.154962,3.896558,-1.456110,-1.219505,0.580113
0.010000,14.432578,14.321002,15.193781,3.881876,-1.468221,-1.211048,0.576126
0.010000,14.465049,14.342004,15.232452,3.867084,-1.479187,-1.096601,0.572083
0.010000,14.497480,14.362793,15.270973,3.852170,-1.491424,-1.223748,0.567985
0.010000,14.529869,14.383367,15.309345,3.837131,-1.503869,-1.244433,0.563834
0.010000,14.562215,14.403725,15.347564,3.821971,-1.515960,-1.209171,0.559630
0.010000,14.594518,14.423865,15.385631,3.806689,-1.528191,-1.223048,0.555375
0.010000,14.626775,14.443786,15.423544,3.791288,-1.540110,-1.191884,0.551070
0.010000,14.658986,14.463486,15.461302,3.775756,-1.553205,-1.309538,0.546717
0.010000,14.691149,14.482964,15.498903,3.760098,-1.565842,-1.263684,0.542317
0.010000,14.723263,14.502218,15.536346,3.744312,-1.578598,-1.275635,0.537871
0.010000,14.755325,14.521247,15.573630,3.728397,-1.591479,-1.288115,0.533382
0.010000,14.787334,14.540050,15.610753,3.712352,-1.604480,-1.300054,0.528850
0.010000,14.819289,14.558626,15.647715,3.696176,-1.617593,-1.311348,0.524276
0.010000,14.851187,14.576973,15.684514,3.679868,-1.630812,-1.321889,0.519662
0.010000,14.883028,14.595092,15.721148,3.663427,-1.644128,-1.331567,0.515011
0.010000,14.914808,14.612980,15.757617,3.646852,-1.657531,-1.340272,0.510322
0.010000,14.946526,14.630637,15.793918,3.630142,-1.670933,-1.340267,0.505598
0.010000,14.978179,14.648062,15.830051,3.613296,-1.684623,-1.368911,0.500840
0.010000,15.009767,14.665255,15.866014,3.596313,-1.698295,-1.367213,0.496049
0.010000,15.041285,14.682214,15.901806,3.579193,-1.711971,-1.367610,0.491228
0.010000,15.072734,14.698940,15.937425,3.561936,-1.725719,-1.374872,0.486377
0.010000,15.104109,14.715432,15.972871,3.544539,-1.739747,-1.402731,0.481498
0.010000,15.135408,14.731689,16.008141,3.527005,-1.753408,-1.366076,0.476593
0.010000,15.166631,14.747711,16.043234,3.509332,-1.767301,-1.389324,0.471662
0.010000,15.197773,14.763499,16.078149,3.491514,-1.781719,-1.441839,0.466709
0.010000,15.228832,14.779051,16.112885,3.473565,-1.794936,-1.321671,0.461733
0.010000,15.259807,14.794368,16.147440,3.455467,-1.809835,-1.489939,0.456738
0.010000,15.290694,14.809450,16.181812,3.437238,-1.822899,-1.306362,0.451723
0.010000,15.321490,14.824296,16.216001,3.418859,-1.837837,-1.493817,0.446691
0.010000,15.352194,14.838908,16.250004,3.400353,-1.850615,-1.277797,0.441644
0.010000,15.382803,14.853285,16.283821,3.381691,-1.866264,-1.564885,0.436582
0.010000,15.413314,14.867427,16.317450,3.362907,-1.878388,-1.212380,0.431508
0.010000,15.443724,14.881336,16.350890,3.343972,-1.893434,-1.504640,0.426423
0.010000,15.474030,14.895011,16.384139,3.324900,-1.907216,-1.378190,0.421327
0.010000,15.504230,14.908454,16.417196,3.305700,-1.920054,-1.283756,0.416224
0.010000,15.534322,14.921664,16.450059,3.286358,-1.934123,-1.406955,0.411114
0.010000,15.564302,14.934643,16.482728,3.266867,-1.949129,-1.500561,0.405999
0.010000,15.594167,14.947391,16.515201,3.247256,-1.961113,-1.198380,0.400880
0.010000,15.623916,14.959910,16.547476,3.227510,-1.974618,-1.350558,0.395759
0.010000,15.653544,14.972200,16.579552,3.207630,-1.988020,-1.340145,0.390637
0.010000,15.683050,14.984262,16.611428,3.187617,-2.001300,-1.328073,0.385516
0.010000,15.712430,14.996098,16.643103,3.167472,-2.014443,-1.314298,0.380397
0.010000,15.741682,15.007708,16.674575,3.147198,-2.027431,-1.298777,0.375282
0.010000,15.770803,15.019095,16.705843,3.126795,-2.040246,-1.281472,0.370171
0.010000,15.799791,15.030259,16.736906,3.106267,-2.052869,-1.262350,0.365067
0.010000,15.828641,15.041201,16.767762,3.085614,-2.065283,-1.241377,0.359970
0.010000,15.857353,15.051924,16.798410,3.064839,-2.077468,-1.218528,0.354883
0.010000,15.885922,15.062429,16.828850,3.043945,-2.089406,-1.193777,0.349805
0.010000,15.914347,15.072717,16.859079,3.022934,-2.101077,-1.167105,0.344740
0.010000,15.942624,15.082790,16.889097,3.001810,-2.112462,-1.138496,0.339687
0.010000,15.970752,15.092650,16.918903,2.980566,-2.124344,-1.188179,0.334648
0.010000,15.998726,15.102299,16.948494,2.959183,-2.138369,-1.402495,0.329625
0.010000,16.026546,15.111739,16.977872,2.937725,-2.145721,-0.735217,0.324618
0.010000,16.054207,15.120971,17.007033,2.916167,-2.155850,-1.012932,0.319629
0.010000,16.081708,15.129997,17.035978,2.894448,-2.171894,-1.604377,0.314659
0.010000,16.109047,15.138820,17.064705,2.872675,-2.177254,-0.536019,0.309709
0.010000,16.136220,15.147442,17.093213,2.850793,-2.188287,-1.103299,0.304780
0.010000,16.163224,15.155865,17.121500,2.828780,-2.201233,-1.294610,0.299874
0.010000,16.190059,15.164090,17.149568,2.806722,-2.205849,-0.461610,0.294991
0.010000,16.216721,15.172121,17.177413,2.784507,-2.221470,-1.562040,0.290132
0.010000,16.243208,15.179959,17.205035,2.762257,-2.225006,-0.353617,0.285298
0.010000,16.269518,15.187607,17.232434,2.739884,-2.237296,-1.229028,0.280491
0.010000,16.295648,15.195068,17.259608,2.717422,-2.246212,-0.891534,0.275712
0.010000,16.321597,15.202342,17.286557,2.694917,-2.250445,-0.423379,0.270960
0.010000,16.347361,15.209434,17.313280,2.672266,-2.265099,-1.465307,0.266238
0.010000,16.372940,15.216345,17.339776,2.649568,-2.269864,-0.476534,0.261546
0.010000,16.398330,15.223078,17.366044,2.626810,-2.275741,-0.587693,0.256884
0.010000,16.423531,15.229636,17.392084,2.603973,-2.283767,-0.802609,0.252254
0.010000,16.448539,15.236020,17.417894,2.581029,-2.294404,-1.063735,0.247657
0.010000,16.473353,15.242234,17.443474,2.558025,-2.300386,-0.598161,0.243093
0.010000,16.497971,15.248280,17.468824,2.534972,-2.305249,-0.486312,0.238563
0.010000,16.522392,15.254161,17.493942,2.511852,-2.312010,-0.676070,0.234067
0.010000,16.546612,15.259879,17.518829,2.488668,-2.318447,-0.643702,0.229607
0.010000,16.570632,15.265437,17.543483,2.465422,-2.324551,-0.610462,0.225183
0.010000,16.594449,15.270838,17.567905,2.442119,-2.330315,-0.576371,0.220796
0.010000,16.618060,15.276084,17.592092,2.418762,-2.335730,-0.541449,0.216446
0.010000,16.641466,15.281178,17.616046,2.395354,-2.340787,-0.505718,0.212133
0.010000,16.664664,15.286122,17.639765,2.371899,-2.345479,-0.469203,0.207859
0.010000,16.687653,15.290920,17.663249,2.348401,-2.349798,-0.431927,0.203624
0.010000,16.710430,15.295573,17.686497,2.324794,-2.360703,-1.090507,0.199428
0.010000,16.732996,15.300085,17.709509,2.301204,-2.359022,0.168114,0.195272
0.010000,16.755348,15.304459,17.732285,2.277583,-2.362057,-0.303522,0.191157
0.010000,16.777485,15.308696,17.754824,2.253935,-2.364888,-0.283064,0.187082
0.010000,16.799406,15.312800,17.777125,2.230154,-2.378010,-1.312187,0.183048
0.010000,16.821109,15.316773,17.799190,2.206421,-2.373366,0.464345,0.179056
0.010000,16.842595,15.320617,17.821017,2.182693,-2.372811,0.055568,0.175106
0.010000,16.863860,15.324337,17.842604,2.158777,-2.391614,-1.880307,0.171198
0.010000,16.884905,15.327933,17.863954,2.135006,-2.377083,1.453030,0.167332
0.010000,16.905727,15.331410,17.885065,2.111084,-2.392156,-1.507267,0.163510
0.010000,16.926328,15.334768,17.905937,2.087227,-2.385744,0.641170,0.159730
0.010000,16.946704,15.338012,17.926570,2.063258,-2.396826,-1.108162,0.155994
0.010000,16.966856,15.341143,17.946964,2.039383,-2.387589,0.923718,0.152302
0.010000,16.986781,15.344164,17.967117,2.015322,-2.406067,-1.847794,0.148653
0.010000,17.006481,15.347078,17.987031,1.991404,-2.391778,1.428829,0.145049
0.010000,17.025953,15.349887,18.006705,1.967394,-2.400989,-0.921062,0.141488
0.010000,17.045197,15.352594,18.026138,1.943331,-2.406324,-0.533513,0.137973
0.010000,17.064213,15.355201,18.045332,1.919338,-2.399290,0.703425,0.134502
0.010000,17.082999,15.357710,18.064285,1.895321,-2.401699,-0.240880,0.131075
0.010000,17.101555,15.360124,18.082997,1.871211,-2.410958,-0.925935,0.127694
0.010000,17.119880,15.362446,18.101468,1.847134,-2.407762,0.319636,0.124357
0.010000,17.137973,15.364678,18.119699,1.823072,-2.406150,0.161178,0.121066
0.010000,17.155835,15.366821,18.137689,1.798997,-2.407583,-0.143287,0.117820
0.010000,17.173464,15.368879,18.155438,1.774909,-2.408777,-0.119462,0.114619
0.010000,17.190861,15.370854,18.172946,1.750811,-2.409732,-0.095415,0.111463
0.010000,17.208024,15.372748,18.190213,1.726707,-2.410443,-0.071158,0.108353
0.010000,17.224953,15.374563,18.207239,1.702598,-2.410910,-0.046699,0.105288
0.010000,17.241647,15.376302,18.224024,1.678487,-2.411131,-0.022051,0.102268
0.010000,17.258107,15.377967,18.240568,1.654376,-2.411103,0.002776,0.099294
0.010000,17.274332,15.379559,18.256871,1.630267,-2.410825,0.027771,0.096365
0.010000,17.290321,15.381081,18.272932,1.606164,-2.410296,0.052924,0.093482
0.010000,17.306075,15.382536,18.288753,1.582069,-2.409514,0.078222,0.090644
0.010000,17.321593,15.383924,18.304333,1.557984,-2.408477,0.103655,0.087852
0.010000,17.336873,15.385249,18.319671,1.533806,-2.417850,-0.937304,0.085105
0.010000,17.351918,15.386512,18.334768,1.509709,-2.409714,0.813570,0.082403
0.010000,17.366725,15.387715,18.349624,1.485650,-2.405868,0.384686,0.079747
0.010000,17.381296,15.388861,18.364240,1.461599,-2.405074,0.079364,0.077136
0.010000,17.395629,15.389950,18.378614,1.437393,-2.420691,-1.561743,0.074570
0.010000,17.409725,15.390985,18.392748,1.413381,-2.401186,1.950514,0.072049
0.010000,17.423583,15.391968,18.406641,1.389321,-2.405962,-0.477541,0.069574
0.010000,17.437203,15.392901,18.420293,1.365179,-2.414186,-0.822449,0.067143
0.010000,17.450586,15.393784,18.433706,1.341232,-2.394726,1.945977,0.064758
0.010000,17.463730,15.394621,18.446876,1.317024,-2.420840,-2.611348,0.062417
0.010000,17.476637,15.395413,18.459807,1.293127,-2.389700,3.114006,0.060121
0.010000,17.489304,15.396161,18.472496,1.268930,-2.419644,-2.994446,0.057870
0.010000,17.501734,15.396868,18.484947,1.245019,-2.391138,2.850624,0.055663
0.010000,17.513925,15.397534,18.497156,1.220915,-2.410329,-1.919115,0.053501
0.010000,17.525878,15.398161,18.509125,1.196922,-2.399294,1.103544,0.051384
0.010000,17.537593,15.398752,18.520855,1.172994,-2.392859,0.643520,0.049310
0.010000,17.549068,15.399306,18.532343,1.148854,-2.413959,-2.110081,0.047281
0.010000,17.560305,15.399827,18.543593,1.124924,-2.393040,2.091961,0.045296
0.010000,17.571304,15.400315,18.554603,1.100990,-2.393386,-0.034657,0.043355
0.010000,17.582065,15.400771,18.565372,1.076997,-2.399261,-0.587433,0.041458
0.010000,17.592586,15.401198,18.575902,1.052977,-2.402047,-0.278675,0.039605
0.010000,17.602869,15.401596,18.586193,1.029052,-2.392487,0.956012,0.037795
0.010000,17.612913,15.401967,18.596244,1.005127,-2.392462,0.002489,0.036030
0.010000,17.622719,15.402312,18.606056,0.981205,-2.392291,0.017159,0.034307
0.010000,17.632287,15.402632,18.615629,0.957285,-2.391972,0.031917,0.032628
0.010000,17.641616,15.402929,18.624963,0.933370,-2.391504,0.046758,0.030992
0.010000,17.650706,15.403204,18.634057,0.909461,-2.390887,0.061678,0.029400
0.010000,17.659558,15.403457,18.642913,0.885560,-2.390121,0.076671,0.027851
0.010000,17.668171,15.403691,18.651530,0.861668,-2.389203,0.091732,0.026344
0.010000,17.676547,15.403905,18.659907,0.837786,-2.388135,0.106855,0.024881
0.010000,17.684683,15.404102,18.668047,0.813917,-2.386914,0.122036,0.023460
0.010000,17.692582,15.404282,18.675947,0.790062,-2.385542,0.137268,0.022082
0.010000,17.700242,15.404446,18.683609,0.766222,-2.384016,0.152547,0.020746
0.010000,17.707665,15.404595,18.691033,0.742398,-2.382337,0.167867,0.019453
0.010000,17.714850,15.404730,18.698219,0.718593,-2.380505,0.183222,0.018202
0.010000,17.721796,15.404852,18.705167,0.694771,-2.382212,-0.170629,0.016994
0.010000,17.728504,15.404963,18.711876,0.670871,-2.389986,-0.777429,0.015828
0.010000,17.734974,15.405061,18.718347,0.647110,-2.376166,1.381956,0.014704
0.010000,17.741207,15.405150,18.724581,0.623372,-2.373735,0.243135,0.013622
0.010000,17.747202,15.405228,18.730576,0.599528,-2.384464,-1.072881,0.012581
0.010000,17.752959,15.405298,18.736333,0.575723,-2.380475,0.398875,0.011583
0.010000,17.758479,15.405359,18.741854,0.552046,-2.367658,1.281668,0.010626
0.010000,17.763761,15.405413,18.747135,0.528168,-2.387794,-2.013589,0.009712
0.010000,17.768805,15.405460,18.752180,0.504471,-2.369776,1.801839,0.008838
0.010000,17.773612,15.405500,18.756987,0.480714,-2.375637,-0.586146,0.008007
0.010000,17.778181,15.405535,18.761556,0.456944,-2.376986,-0.134850,0.007216
0.010000,17.782514,15.405564,18.765889,0.433237,-2.370713,0.627307,0.006467
0.010000,17.786608,15.405589,18.769984,0.409478,-2.375889,-0.517671,0.005760
0.010000,17.790466,15.405610,18.773841,0.385747,-2.373096,0.279314,0.005094
0.010000,17.794086,15.405628,18.777462,0.362083,-2.366407,0.668903,0.004469
0.010000,17.797469,15.405642,18.780845,0.338255,-2.382861,-1.645369,0.003885
0.010000,17.800615,15.405653,18.783991,0.314640,-2.361427,2.143360,0.003342
0.010000,17.803524,15.405662,18.786900,0.290899,-2.374150,-1.272294,0.002840
0.010000,17.806196,15.405669,18.789571,0.267143,-2.375574,-0.142381,0.002380
0.010000,17.808631,15.405674,18.792006,0.243503,-2.363995,1.157940,0.001960
0.010000,17.810829,15.405678,18.794205,0.219851,-2.365257,-0.126277,0.001581
0.010000,17.812790,15.405681,18.796165,0.196046,-2.380483,-1.522575,0.001243
0.010000,17.814513,15.405683,18.797889,0.172369,-2.367647,1.283613,0.000946
0.010000,17.816001,15.405684,18.799376,0.148706,-2.366352,0.129552,0.000690
0.010000,17.817251,15.405685,18.800626,0.125035,-2.367125,-0.077317,0.000475
0.010000,17.818264,15.405685,18.801640,0.101357,-2.367775,-0.065048,0.000300
0.010000,17.819041,15.405686,18.802417,0.077674,-2.368303,-0.052756,0.000167
0.010000,17.819581,15.405686,18.802957,0.053987,-2.368707,-0.040445,0.000074
0.010000,17.819884,15.405686,18.803260,0.030297,-2.368988,-0.028119,0.000022
0.010000,17.819993,15.405686,18.803368,0.010877,-1.941981,42.700775,0.000003
0.010000,17.820009,15.405686,18.803385,0.001651,-0.922563,101.941731,0.000000
0.010000,17.820009,15.405686,18.803385,0.000000,-0.165134,75.742938,0.000000
