dt,x,y,position,velocity,acceleration,jerk,heading
0.010000,0.303239,10.485328,0.000050,0.009991,0.999058,99.905768,0.000324
0.010000,0.303244,10.485328,0.000055,0.000497,-0.949330,-194.838800,0.000318
0.010000,0.303254,10.485328,0.000065,0.000994,0.049713,99.904323,0.000307
0.010000,0.303269,10.485328,0.000080,0.001491,0.049684,-0.002889,0.000291
0.010000,0.303289,10.485328,0.000100,0.001988,0.049641,-0.004334,0.000269
0.010000,0.303314,10.485328,0.000124,0.002483,0.049583,-0.005778,0.000242
0.010000,0.303344,10.485328,0.000154,0.002979,0.049511,-0.007222,0.000210
0.010000,0.303378,10.485328,0.000189,0.003473,0.049424,-0.008666,0.000172
0.010000,0.303418,10.485328,0.000229,0.003966,0.049323,-0.010110,0.000128
0.010000,0.303463,10.485328,0.000273,0.004458,0.049207,-0.011554,0.000079
0.010000,0.303512,10.485328,0.000323,0.004949,0.049077,-0.012998,0.000025
0.010000,0.304826,10.485328,0.001636,0.131348,12.639955,1259.087723,6.283151
0.010000,0.307283,10.485328,0.004093,0.245696,11.434777,-120.517775,6.283087
0.010000,0.309944,10.485327,0.006755,0.266166,2.046951,-938.782551,6.283016
0.010000,0.312811,10.485327,0.009621,0.286634,2.046827,-0.012430,6.282941
0.010000,0.315882,10.485326,0.012692,0.307101,2.046658,-0.016909,6.282860
0.010000,0.319157,10.485325,0.015968,0.327550,2.044986,-0.167235,6.282775
0.010000,0.322637,10.485323,0.019448,0.348013,2.046296,0.131080,6.282683
0.010000,0.326322,10.485321,0.023133,0.368475,2.046134,-0.016293,6.282587
0.010000,0.330211,10.485318,0.027022,0.388924,2.044926,-0.120793,6.282486
0.010000,0.334305,10.485315,0.031116,0.409372,2.044823,-0.010285,6.282379
0.010000,0.338603,10.485312,0.035414,0.429827,2.045487,0.066421,6.282267
0.010000,0.343106,10.485307,0.039916,0.450267,2.043952,-0.153503,6.282151
0.010000,0.347813,10.485302,0.044624,0.470708,2.044126,0.017383,6.282029
0.010000,0.352725,10.485296,0.049535,0.491155,2.044705,0.057921,6.281902
0.010000,0.357840,10.485289,0.054651,0.511576,2.042100,-0.260499,6.281770
0.010000,0.363160,10.485281,0.059971,0.532018,2.044182,0.208162,6.281634
0.010000,0.368685,10.485272,0.065495,0.552439,2.042108,-0.207346,6.281492
0.010000,0.374413,10.485262,0.071224,0.572866,2.042737,0.062899,6.281346
0.010000,0.380346,10.485251,0.077157,0.593284,2.041776,-0.096158,6.281195
0.010000,0.386483,10.485238,0.083294,0.613700,2.041604,-0.017148,6.281039
0.010000,0.392824,10.485224,0.089635,0.634110,2.041011,-0.059311,6.280878
0.010000,0.399370,10.485208,0.096180,0.654518,2.040825,-0.018569,6.280713
0.010000,0.406119,10.485191,0.102929,0.674917,2.039819,-0.100640,6.280543
0.010000,0.413072,10.485172,0.109883,0.695320,2.040396,0.057670,6.280369
0.010000,0.420229,10.485151,0.117040,0.715703,2.038204,-0.219168,6.280190
0.010000,0.427590,10.485129,0.124401,0.736099,2.039667,0.146292,6.280007
0.010000,0.435155,10.485104,0.131965,0.756474,2.037456,-0.221038,6.279819
0.010000,0.442923,10.485077,0.139734,0.776852,2.037838,0.038182,6.279627
0.010000,0.450895,10.485048,0.147706,0.797230,2.037818,-0.002018,6.279431
0.010000,0.459071,10.485016,0.155882,0.817583,2.035314,-0.250381,6.279230
0.010000,0.467450,10.484982,0.164261,0.837949,2.036511,0.119671,6.279025
0.010000,0.476033,10.484946,0.172845,0.858307,2.035891,-0.062039,6.278817
0.010000,0.484820,10.484906,0.181631,0.878647,2.033945,-0.194516,6.278604
0.010000,0.493810,10.484864,0.190621,0.898989,2.034243,0.029775,6.278387
0.010000,0.503003,10.484819,0.199814,0.919328,2.033883,-0.036003,6.278167
0.010000,0.512399,10.484771,0.209211,0.939660,2.033161,-0.072248,6.277943
0.010000,0.521999,10.484719,0.218811,0.959974,2.031386,-0.177490,6.277715
0.010000,0.531802,10.484665,0.228613,0.980290,2.031630,0.024392,6.277483
0.010000,0.541807,10.484606,0.238619,1.000600,2.031045,-0.058421,6.277248
0.010000,0.552016,10.484545,0.248828,1.020903,2.030288,-0.075734,6.277009
0.010000,0.562428,10.484479,0.259240,1.041199,2.029522,-0.076590,6.276767
0.010000,0.573043,10.484410,0.269855,1.061485,2.028633,-0.088885,6.276521
0.010000,0.583860,10.484336,0.280673,1.081759,2.027443,-0.118984,6.276273
0.010000,0.594880,10.484259,0.291693,1.102032,2.027269,-0.017455,6.276021
0.010000,0.606103,10.484177,0.302916,1.122297,2.026467,-0.080205,6.275766
0.010000,0.617528,10.484091,0.314342,1.142553,2.025656,-0.081095,6.275508
0.010000,0.629156,10.484000,0.325970,1.162802,2.024836,-0.081993,6.275247
0.010000,0.640986,10.483904,0.337800,1.183042,2.024007,-0.082898,6.274983
0.010000,0.653018,10.483804,0.349833,1.203273,2.023169,-0.083812,6.274716
0.010000,0.665252,10.483699,0.362068,1.223497,2.022322,-0.084735,6.274447
0.010000,0.677689,10.483588,0.374505,1.243711,2.021465,-0.085666,6.274176
0.010000,0.690328,10.483473,0.387144,1.263917,2.020599,-0.086607,6.273901
0.010000,0.703168,10.483352,0.399985,1.284114,2.019723,-0.087559,6.273625
0.010000,0.716211,10.483225,0.413028,1.304303,2.018838,-0.088520,6.273346
0.010000,0.729455,10.483093,0.426273,1.324482,2.017943,-0.089492,6.273065
0.010000,0.742901,10.482955,0.439720,1.344653,2.017038,-0.090476,6.272782
0.010000,0.756548,10.482811,0.453368,1.364814,2.016124,-0.091471,6.272497
0.010000,0.770397,10.482661,0.467217,1.384961,2.014677,-0.144656,6.272210
0.010000,0.784447,10.482505,0.481268,1.405101,2.014046,-0.063113,6.271922
0.010000,0.798698,10.482342,0.495521,1.425234,2.013245,-0.080066,6.271632
0.010000,0.813151,10.482173,0.509974,1.445356,2.012291,-0.095418,6.271340
0.010000,0.827805,10.481997,0.524629,1.465470,2.011326,-0.096477,6.271047
0.010000,0.842659,10.481815,0.539485,1.485572,2.010279,-0.104749,6.270752
0.010000,0.857715,10.481626,0.554541,1.505656,2.008323,-0.195615,6.270457
0.010000,0.872971,10.481429,0.569799,1.525739,2.008302,-0.002044,6.270160
0.010000,0.888427,10.481225,0.585257,1.545812,2.007295,-0.100695,6.269862
0.010000,0.904085,10.481014,0.600916,1.565872,2.006080,-0.121574,6.269564
0.010000,0.919942,10.480796,0.616775,1.585913,2.004060,-0.201985,6.269264
0.010000,0.936000,10.480570,0.632834,1.605955,2.004148,0.008845,6.268964
0.010000,0.952259,10.480336,0.649094,1.625986,2.003097,-0.105163,6.268664
0.010000,0.968717,10.480095,0.665554,1.645991,2.000520,-0.257699,6.268363
0.010000,0.985375,10.479845,0.682214,1.665999,2.000845,0.032545,6.268062
0.010000,1.002233,10.479588,0.699074,1.685994,1.999462,-0.138274,6.267761
0.010000,1.019290,10.479322,0.716134,1.705967,1.997332,-0.212995,6.267460
0.010000,1.036548,10.479048,0.733393,1.725943,1.997561,0.022917,6.267159
0.010000,1.054004,10.478766,0.750852,1.745893,1.995050,-0.251129,6.266858
0.010000,1.071660,10.478475,0.768510,1.765841,1.994796,-0.025458,6.266558
0.010000,1.089516,10.478175,0.786368,1.785772,1.993127,-0.166812,6.266258
0.010000,1.107570,10.477867,0.804425,1.805692,1.991945,-0.118265,6.265959
0.010000,1.125823,10.477550,0.822681,1.825601,1.990870,-0.107529,6.265660
0.010000,1.144275,10.477224,0.841136,1.845494,1.989344,-0.152514,6.265363
0.010000,1.162926,10.476888,0.859790,1.865377,1.988295,-0.104969,6.265067
0.010000,1.181775,10.476544,0.878642,1.885247,1.986973,-0.132209,6.264772
0.010000,1.200823,10.476190,0.897693,1.905101,1.985422,-0.155096,6.264478
0.010000,1.220069,10.475828,0.916943,1.924949,1.984807,-0.061439,6.264186
0.010000,1.239513,10.475455,0.936390,1.944772,1.982269,-0.253783,6.263895
0.010000,1.259155,10.475073,0.956036,1.964594,1.982247,-0.002241,6.263607
0.010000,1.278995,10.474682,0.975880,1.984394,1.980014,-0.223256,6.263320
0.010000,1.299033,10.474281,0.995922,2.004183,1.978871,-0.114397,6.263035
0.010000,1.319269,10.473870,1.016162,2.023963,1.977983,-0.088786,6.262753
0.010000,1.339702,10.473450,1.036599,2.043720,1.975726,-0.225658,6.262473
0.010000,1.360332,10.473020,1.057234,2.063468,1.974801,-0.092509,6.262195
0.010000,1.381159,10.472580,1.078066,2.083205,1.973646,-0.115534,6.261920
0.010000,1.402184,10.472130,1.099095,2.102923,1.971856,-0.178927,6.261648
0.010000,1.423405,10.471670,1.120321,2.122624,1.970134,-0.172281,6.261379
0.010000,1.444823,10.471200,1.141744,2.142317,1.969230,-0.090392,6.261114
0.010000,1.466437,10.470720,1.163364,2.161994,1.967710,-0.151939,6.260851
0.010000,1.488249,10.470230,1.185181,2.181655,1.966156,-0.155453,6.260592
0.010000,1.510256,10.469730,1.207194,2.201297,1.964121,-0.203464,6.260337
0.010000,1.532459,10.469219,1.229403,2.220928,1.963181,-0.093978,6.260086
0.010000,1.554859,10.468699,1.251808,2.240545,1.961627,-0.155472,6.259838
0.010000,1.577454,10.468169,1.274410,2.260145,1.960063,-0.156338,6.259595
0.010000,1.600245,10.467628,1.297207,2.279730,1.958491,-0.157232,6.259356
0.010000,1.623231,10.467078,1.320200,2.299299,1.956909,-0.158155,6.259122
0.010000,1.646413,10.466517,1.343389,2.318853,1.955318,-0.159108,6.258892
0.010000,1.669790,10.465946,1.366773,2.338388,1.953585,-0.173351,6.258667
0.010000,1.693362,10.465366,1.390352,2.357909,1.952109,-0.147555,6.258447
0.010000,1.717129,10.464775,1.414126,2.377415,1.950531,-0.157780,6.258233
0.010000,1.741090,10.464175,1.438095,2.396904,1.948895,-0.163620,6.258024
0.010000,1.765246,10.463564,1.462259,2.416376,1.947248,-0.164741,6.257820
0.010000,1.789597,10.462944,1.486617,2.435832,1.945589,-0.165897,6.257622
0.010000,1.814141,10.462314,1.511170,2.455271,1.943918,-0.167090,6.257430
0.010000,1.838880,10.461674,1.535917,2.474694,1.942235,-0.168319,6.257244
0.010000,1.863812,10.461025,1.560858,2.494099,1.940539,-0.169586,6.257064
0.010000,1.888939,10.460367,1.585992,2.513487,1.938767,-0.177198,6.256891
0.010000,1.914258,10.459698,1.611321,2.532857,1.937018,-0.174927,6.256725
0.010000,1.939772,10.459021,1.636843,2.552210,1.935359,-0.165820,6.256565
0.010000,1.965478,10.458335,1.662559,2.571547,1.933613,-0.174654,6.256413
0.010000,1.991377,10.457639,1.688467,2.590865,1.931852,-0.176121,6.256267
0.010000,2.017469,10.456935,1.714569,2.610166,1.930075,-0.177630,6.256129
0.010000,2.043754,10.456222,1.740863,2.629449,1.928284,-0.179182,6.255999
0.010000,2.070231,10.455500,1.767351,2.648713,1.926438,-0.184540,6.255877
0.010000,2.096901,10.454770,1.794030,2.667958,1.924465,-0.197324,6.255762
0.010000,2.123763,10.454032,1.820902,2.687186,1.922827,-0.163783,6.255656
0.010000,2.150816,10.453286,1.847966,2.706396,1.920973,-0.185433,6.255559
0.010000,2.178062,10.452531,1.875222,2.725587,1.919101,-0.187209,6.255469
0.010000,2.205499,10.451770,1.902669,2.744757,1.917035,-0.206578,6.255389
0.010000,2.233127,10.451001,1.930308,2.763910,1.915307,-0.172802,6.255318
0.010000,2.260947,10.450224,1.958139,2.783044,1.913410,-0.189657,6.255256
0.010000,2.288957,10.449441,1.986161,2.802158,1.911392,-0.201781,6.255204
0.010000,2.317159,10.448651,2.014373,2.821253,1.909464,-0.192890,6.255161
0.010000,2.345551,10.447855,2.042776,2.840328,1.907568,-0.189596,6.255128
0.010000,2.374134,10.447052,2.071370,2.859384,1.905526,-0.204208,6.255106
0.010000,2.402906,10.446244,2.100154,2.878419,1.903567,-0.195878,6.255093
0.010000,2.431869,10.445430,2.129129,2.897435,1.901560,-0.200639,6.255091
0.010000,2.461022,10.444611,2.158293,2.916430,1.899543,-0.201685,6.255100
0.010000,2.490365,10.443787,2.187647,2.935405,1.897479,-0.206494,6.255120
0.010000,2.519897,10.442958,2.217191,2.954360,1.895482,-0.199624,6.255151
0.010000,2.549618,10.442125,2.246924,2.973293,1.893342,-0.214007,6.255194
0.010000,2.579528,10.441289,2.276846,2.992207,1.891332,-0.201068,6.255248
0.010000,2.609628,10.440448,2.306957,3.011098,1.889150,-0.218181,6.255314
0.010000,2.639915,10.439605,2.337256,3.029970,1.887129,-0.202096,6.255393
0.010000,2.670392,10.438759,2.367745,3.048818,1.884856,-0.227295,6.255483
0.010000,2.701057,10.437911,2.398421,3.067647,1.882909,-0.194674,6.255587
0.010000,2.731909,10.437061,2.429286,3.086452,1.880443,-0.246652,6.255703
0.010000,2.762950,10.436210,2.460338,3.105238,1.878655,-0.178741,6.255832
0.010000,2.794179,10.435358,2.491578,3.123999,1.876086,-0.256954,6.255975
0.010000,2.825594,10.434505,2.523005,3.142739,1.874015,-0.207095,6.256131
0.010000,2.857197,10.433653,2.554620,3.161458,1.871887,-0.212815,6.256301
0.010000,2.888988,10.432801,2.586421,3.180151,1.869339,-0.254732,6.256485
0.010000,2.920965,10.431950,2.618410,3.198825,1.867350,-0.198894,6.256683
0.010000,2.953128,10.431100,2.650584,3.217475,1.865020,-0.233052,6.256896
0.010000,2.985478,10.430253,2.682945,3.236100,1.862481,-0.253857,6.257123
0.010000,3.018014,10.429409,2.715492,3.254703,1.860266,-0.221489,6.257366
0.010000,3.050736,10.428568,2.748225,3.273285,1.858231,-0.203576,6.257624
0.010000,3.083644,10.427731,2.781144,3.291840,1.855468,-0.276230,6.257898
0.010000,3.116737,10.426899,2.814247,3.310371,1.853088,-0.238068,6.258187
0.010000,3.150016,10.426072,2.847536,3.328877,1.850691,-0.239654,6.258492
0.010000,3.183479,10.425251,2.881010,3.347365,1.848743,-0.194807,6.258814
0.010000,3.217128,10.424436,2.914668,3.365823,1.845856,-0.288708,6.259153
0.010000,3.250960,10.423629,2.948511,3.384257,1.843392,-0.246368,6.259508
0.010000,3.284978,10.422830,2.982537,3.402667,1.840919,-0.247294,6.259881
0.010000,3.319179,10.422039,3.016748,3.421051,1.838427,-0.249225,6.260271
0.010000,3.353564,10.421258,3.051142,3.439410,1.835915,-0.251226,6.260679
0.010000,3.388133,10.420487,3.085719,3.457744,1.833382,-0.253297,6.261104
0.010000,3.422885,10.419728,3.120480,3.476054,1.831029,-0.235238,6.261548
0.010000,3.457821,10.418980,3.155423,3.494336,1.828245,-0.278410,6.262011
0.010000,3.492939,10.418244,3.190549,3.512593,1.825606,-0.263907,6.262492
0.010000,3.528240,10.417523,3.225857,3.530822,1.822978,-0.262810,6.262993
0.010000,3.563723,10.416815,3.261348,3.549026,1.820326,-0.265215,6.263513
0.010000,3.599388,10.416123,3.297020,3.567202,1.817649,-0.267685,6.264053
0.010000,3.635236,10.415447,3.332873,3.585352,1.814947,-0.270220,6.264613
0.010000,3.671264,10.414788,3.368908,3.603474,1.812219,-0.272818,6.265193
0.010000,3.707474,10.414148,3.405124,3.621568,1.809464,-0.275479,6.265793
0.010000,3.743865,10.413526,3.441520,3.639636,1.806786,-0.267811,6.266415
0.010000,3.780437,10.412924,3.478097,3.657678,1.804165,-0.262082,6.267058
0.010000,3.817189,10.412343,3.514854,3.675689,1.801124,-0.304135,6.267722
0.010000,3.854122,10.411785,3.551790,3.693672,1.798261,-0.286284,6.268408
0.010000,3.891234,10.411250,3.588907,3.711625,1.795368,-0.289245,6.269117
0.010000,3.928526,10.410739,3.626202,3.729550,1.792446,-0.292256,6.269847
0.010000,3.965998,10.410253,3.663677,3.747445,1.789493,-0.295316,6.270601
0.010000,4.003648,10.409793,3.701330,3.765312,1.786718,-0.277516,6.271378
0.010000,4.041477,10.409362,3.739161,3.783155,1.784316,-0.240182,6.272178
0.010000,4.079485,10.408959,3.777171,3.800961,1.780563,-0.375242,6.273002
0.010000,4.117670,10.408586,3.815358,3.818736,1.777487,-0.307669,6.273850
0.010000,4.156033,10.408245,3.853723,3.836479,1.774384,-0.310233,6.274722
0.010000,4.194574,10.407936,3.892265,3.854206,1.772681,-0.170317,6.275619
0.010000,4.233292,10.407661,3.930984,3.871888,1.768190,-0.449099,6.276541
0.010000,4.272187,10.407421,3.969879,3.889538,1.764983,-0.320690,6.277489
0.010000,4.311258,10.407217,4.008951,3.907168,1.762996,-0.198671,6.278462
0.010000,4.350505,10.407051,4.048199,3.924759,1.759144,-0.385213,6.279462
0.010000,4.389928,10.406925,4.087622,3.942312,1.755300,-0.384452,6.280488
0.010000,4.429526,10.406839,4.127220,3.959851,1.753846,-0.145403,6.281541
0.010000,4.469300,10.406795,4.166994,3.977341,1.748999,-0.484681,6.282621
0.010000,4.509248,10.406794,4.206942,3.994803,1.746230,-0.276910,0.000543
0.010000,4.549370,10.406838,4.247064,4.012238,1.743513,-0.271671,0.001678
0.010000,4.589666,10.406929,4.287360,4.029627,1.738838,-0.467483,0.002842
0.010000,4.630136,10.407069,4.327830,4.047002,1.737549,-0.128911,0.004034
0.010000,4.670779,10.407257,4.368473,4.064319,1.731702,-0.584774,0.005255
0.010000,4.711594,10.407497,4.409290,4.081630,1.731073,-0.062847,0.006505
0.010000,4.752582,10.407790,4.450279,4.098878,1.724846,-0.622689,0.007786
0.010000,4.793742,10.408137,4.491440,4.116119,1.724056,-0.079030,0.009096
0.010000,4.835073,10.408541,4.532773,4.133302,1.718295,-0.576051,0.010437
0.010000,4.876575,10.409002,4.574277,4.150467,1.716475,-0.182057,0.011808
0.010000,4.918248,10.409524,4.615953,4.167587,1.712068,-0.440657,0.013211
0.010000,4.960090,10.410106,4.657800,4.184670,1.708313,-0.375504,0.014646
0.010000,5.002103,10.410752,4.699817,4.201732,1.706180,-0.213336,0.016112
0.010000,5.044284,10.411464,4.742005,4.218740,1.700773,-0.540690,0.017611
0.010000,5.086634,10.412242,4.784362,4.235722,1.698217,-0.255565,0.019143
0.010000,5.129152,10.413089,4.826889,4.252671,1.694857,-0.336042,0.020708
0.010000,5.171838,10.414007,4.869584,4.269572,1.690086,-0.477074,0.022306
0.010000,5.214691,10.414998,4.912449,4.286440,1.686858,-0.322786,0.023938
0.010000,5.257711,10.416064,4.955482,4.303283,1.684277,-0.258146,0.025605
0.010000,5.300897,10.417207,4.998682,4.320074,1.679153,-0.512380,0.027307
0.010000,5.344248,10.418428,5.042051,4.336829,1.675492,-0.366122,0.029044
0.010000,5.387764,10.419731,5.085586,4.353549,1.671930,-0.356210,0.030816
0.010000,5.431444,10.421117,5.129289,4.370241,1.669255,-0.267511,0.032625
0.010000,5.475288,10.422588,5.173157,4.386884,1.664245,-0.500930,0.034470
0.010000,5.519295,10.424147,5.217192,4.403489,1.660486,-0.375909,0.036352
0.010000,5.563465,10.425796,5.261393,4.420056,1.656705,-0.378159,0.038271
0.010000,5.607797,10.427537,5.305759,4.436585,1.652901,-0.380349,0.040228
0.010000,5.652290,10.429372,5.350289,4.453075,1.649076,-0.382466,0.042223
0.010000,5.696943,10.431304,5.394985,4.469530,1.645420,-0.365672,0.044257
0.010000,5.741757,10.433335,5.439844,4.485946,1.641645,-0.377453,0.046329
0.010000,5.786730,10.435467,5.484867,4.502320,1.637367,-0.427830,0.048442
0.010000,5.831861,10.437704,5.530054,4.518654,1.633469,-0.389793,0.050593
0.010000,5.877150,10.440047,5.575403,4.534950,1.629556,-0.391280,0.052786
0.010000,5.922596,10.442499,5.620915,4.551206,1.625630,-0.392606,0.055018
0.010000,5.968198,10.445062,5.666590,4.567423,1.621693,-0.393753,0.057292
0.010000,6.013956,10.447739,5.712426,4.583601,1.617745,-0.394705,0.059608
0.010000,6.059868,10.450534,5.758423,4.599739,1.613791,-0.395442,0.061966
0.010000,6.105934,10.453447,5.804581,4.615837,1.609832,-0.395946,0.064366
0.010000,6.152154,10.456483,5.850900,4.631897,1.606015,-0.381689,0.066808
0.010000,6.198525,10.459643,5.897380,4.647920,1.602335,-0.368004,0.069295
0.010000,6.245048,10.462931,5.944019,4.663901,1.598024,-0.431041,0.071824
0.010000,6.291722,10.466349,5.990817,4.679841,1.594064,-0.396028,0.074398
0.010000,6.338545,10.469901,6.037775,4.695742,1.590113,-0.395135,0.077017
0.010000,6.385516,10.473588,6.084891,4.711604,1.586174,-0.393883,0.079681
0.010000,6.432635,10.477415,6.132165,4.727427,1.582251,-0.392250,0.082390
0.010000,6.479901,10.481383,6.179597,4.743216,1.578901,-0.335046,0.085145
0.010000,6.527313,10.485497,6.227187,4.758965,1.574962,-0.393838,0.087946
0.010000,6.574869,10.489758,6.274933,4.774672,1.570633,-0.432927,0.090794
0.010000,6.622569,10.494170,6.322837,4.790340,1.566806,-0.382732,0.093688
0.010000,6.670411,10.498737,6.370896,4.805975,1.563531,-0.327435,0.096631
0.010000,6.718395,10.503460,6.419112,4.821574,1.559917,-0.361484,0.099621
0.010000,6.766519,10.508344,6.467484,4.837129,1.555533,-0.438378,0.102660
0.010000,6.814782,10.513391,6.516010,4.852650,1.552107,-0.342630,0.105748
0.010000,6.863184,10.518605,6.564691,4.868143,1.549210,-0.289703,0.108884
0.010000,6.911722,10.523990,6.613527,4.883589,1.544659,-0.455013,0.112070
0.010000,6.960396,10.529547,6.662517,4.899006,1.541656,-0.300318,0.115306
0.010000,7.009204,10.535281,6.711661,4.914389,1.538352,-0.330428,0.118592
0.010000,7.058145,10.541195,6.760959,4.929733,1.534336,-0.401573,0.121929
0.010000,7.107218,10.547293,6.810409,4.945053,1.531997,-0.233874,0.125317
0.010000,7.156422,10.553577,6.860012,4.960331,1.527827,-0.417018,0.128756
0.010000,7.205755,10.560052,6.909768,4.975584,1.525275,-0.255218,0.132247
0.010000,7.255215,10.566720,6.959676,4.990802,1.521821,-0.345451,0.135790
0.010000,7.304802,10.573586,7.009736,5.005993,1.519077,-0.274396,0.139386
0.010000,7.354514,10.580652,7.059948,5.021153,1.516003,-0.307374,0.143034
0.010000,7.404349,10.587924,7.110311,5.036286,1.513339,-0.266430,0.146735
0.010000,7.454306,10.595403,7.160825,5.051392,1.510553,-0.278588,0.150489
0.010000,7.504384,10.603094,7.211489,5.066471,1.507987,-0.256595,0.154297
0.010000,7.554580,10.611000,7.262305,5.081527,1.505589,-0.239779,0.158158
0.010000,7.604894,10.619125,7.313270,5.096558,1.503094,-0.249469,0.162074
0.010000,7.655323,10.627474,7.364386,5.111568,1.500989,-0.210490,0.166044
0.010000,7.705867,10.636048,7.415651,5.126559,1.499086,-0.190326,0.170069
0.010000,7.756522,10.644854,7.467067,5.141525,1.496555,-0.253099,0.174148
0.010000,7.807289,10.653893,7.518631,5.156478,1.495385,-0.117022,0.178283
0.010000,7.858164,10.663170,7.570346,5.171417,1.493814,-0.157081,0.182472
0.010000,7.909146,10.672690,7.622209,5.186331,1.491411,-0.240273,0.186717
0.010000,7.960233,10.682455,7.674221,5.201241,1.491008,-0.040290,0.191017
0.010000,8.011425,10.692469,7.726383,5.216140,1.489946,-0.106215,0.195373
0.010000,8.062717,10.702737,7.778693,5.231026,1.488543,-0.140375,0.199785
0.010000,8.114109,10.713263,7.831152,5.245900,1.487480,-0.106240,0.204252
0.010000,8.165599,10.724050,7.883760,5.260777,1.487641,0.016044,0.208775
0.010000,8.217185,10.735102,7.936516,5.275650,1.487314,-0.032705,0.213354
0.010000,8.268865,10.746424,7.989421,5.290522,1.487187,-0.012625,0.217989
0.010000,8.320636,10.758019,8.042475,5.305386,1.486458,-0.072928,0.222680
0.010000,8.372497,10.769891,8.095678,5.320257,1.487019,0.056130,0.227426
0.010000,8.424446,10.782045,8.149029,5.335137,1.488040,0.102077,0.232228
0.010000,8.476480,10.794484,8.202529,5.350025,1.488821,0.078047,0.237086
0.010000,8.528597,10.807213,8.256179,5.364924,1.489844,0.102385,0.242000
0.010000,8.580796,10.820235,8.309977,5.379835,1.491120,0.127557,0.246969
0.010000,8.633073,10.833554,8.363925,5.394761,1.492656,0.153559,0.251993
0.010000,8.685427,10.847175,8.418022,5.409706,1.494459,0.180380,0.257072
0.010000,8.737856,10.861102,8.472268,5.424671,1.496540,0.208010,0.262206
0.010000,8.790356,10.875338,8.526665,5.439660,1.498904,0.236431,0.267395
0.010000,8.842927,10.889888,8.581212,5.454676,1.501560,0.265626,0.272638
0.010000,8.895565,10.904756,8.635909,5.469720,1.504409,0.284847,0.277934
0.010000,8.948267,10.919946,8.690757,5.484799,1.507903,0.349465,0.283285
0.010000,9.001033,10.935461,8.745756,5.499913,1.511426,0.352266,0.288688
0.010000,9.053858,10.951306,8.800907,5.515065,1.515161,0.373513,0.294145
0.010000,9.106741,10.967485,8.856209,5.530260,1.519473,0.431212,0.299653
0.010000,9.159679,10.984002,8.911664,5.545500,1.524028,0.455491,0.305214
0.010000,9.212615,11.000843,8.967214,5.554978,0.947769,-57.625879,0.310819
0.010000,9.265403,11.017964,9.022710,5.549570,-0.540798,-148.856757,0.316455
0.010000,9.317926,11.035327,9.078028,5.531786,-1.778360,-123.756142,0.322106
0.010000,9.370150,11.052920,9.133136,5.510782,-2.100416,-32.205664,0.327768
0.010000,9.422076,11.070741,9.188034,5.489889,-2.089305,1.111143,0.333440
0.010000,9.473703,11.088788,9.242726,5.469107,-2.078184,1.112098,0.339121
0.010000,9.525033,11.107059,9.297210,5.448437,-2.067055,1.112854,0.344810
0.010000,9.576065,11.125551,9.351489,5.427877,-2.055921,1.113455,0.350505
0.010000,9.626798,11.144263,9.405563,5.407430,-2.044781,1.113948,0.356205
0.010000,9.677233,11.163193,9.459434,5.387067,-2.036272,0.850954,0.361909
0.010000,9.727371,11.182338,9.513102,5.366826,-2.024032,1.224008,0.367616
0.010000,9.777210,11.201695,9.566569,5.346704,-2.012290,1.174189,0.373324
0.010000,9.826753,11.221264,9.619836,5.326692,-2.001209,1.108116,0.379033
0.010000,9.875998,11.241041,9.672904,5.306790,-1.990123,1.108600,0.384741
0.010000,9.924946,11.261024,9.725774,5.286990,-1.980031,1.009181,0.390447
0.010000,9.973597,11.281210,9.778446,5.267234,-1.975572,0.445917,0.396150
0.010000,10.021951,11.301596,9.830923,5.247653,-1.958153,1.741837,0.401849
0.010000,10.070010,11.322182,9.883204,5.228182,-1.947110,1.104358,0.407543
0.010000,10.117772,11.342963,9.935292,5.208750,-1.943136,0.397363,0.413231
0.010000,10.165239,11.363937,9.987186,5.189438,-1.931255,1.188086,0.418911
0.010000,10.212412,11.385102,10.038889,5.170282,-1.915532,1.572316,0.424582
0.010000,10.259289,11.406454,10.090400,5.151114,-1.916843,-0.131103,0.430245
0.010000,10.305872,11.427991,10.141721,5.132129,-1.898529,1.831389,0.435896
0.010000,10.352162,11.449711,10.192854,5.113214,-1.891497,0.703220,0.441536
0.010000,10.398159,11.471610,10.243797,5.094353,-1.886091,0.540571,0.447163
0.010000,10.443863,11.493686,10.294554,5.075653,-1.869949,1.614282,0.452777
0.010000,10.489275,11.515936,10.345123,5.056948,-1.870510,-0.056168,0.458377
0.010000,10.534395,11.538356,10.395507,5.038420,-1.852770,1.774032,0.463960
0.010000,10.579225,11.560945,10.445706,5.019909,-1.851129,0.164120,0.469528
0.010000,10.623765,11.583699,10.495721,5.001504,-1.840550,1.057861,0.475078
0.010000,10.668015,11.606615,10.545554,4.983231,-1.827254,1.329594,0.480611
0.010000,10.711976,11.629690,10.595203,4.964892,-1.833894,-0.663936,0.486124
0.010000,10.755649,11.652921,10.644671,4.946783,-1.810874,2.301908,0.491617
0.010000,10.799036,11.676306,10.693958,4.928704,-1.807992,0.288273,0.497090
0.010000,10.842135,11.699841,10.743064,4.910601,-1.810228,-0.223662,0.502542
0.010000,10.884948,11.723523,10.791990,4.892687,-1.791407,1.882138,0.507971
0.010000,10.927477,11.747350,10.840739,4.874832,-1.785498,0.590859,0.513378
0.010000,10.969721,11.771317,10.889309,4.856986,-1.784646,0.085248,0.518761
0.010000,11.011682,11.795423,10.937700,4.839179,-1.780668,0.397777,0.524120
0.010000,11.053360,11.819663,10.985915,4.821500,-1.767863,1.280559,0.529454
0.010000,11.094757,11.844036,11.033954,4.803874,-1.762596,0.526619,0.534762
0.010000,11.135873,11.868537,11.081817,4.786300,-1.757486,0.511000,0.540044
0.010000,11.176710,11.893164,11.129505,4.768774,-1.752523,0.496359,0.545299
0.010000,11.217267,11.917914,11.177018,4.751297,-1.747695,0.482736,0.550527
0.010000,11.257547,11.942784,11.224357,4.733868,-1.742994,0.470167,0.555727
0.010000,11.297550,11.967770,11.271521,4.716483,-1.738407,0.458686,0.560899
0.010000,11.337277,11.992869,11.318513,4.699144,-1.733924,0.448325,0.566041
0.010000,11.376729,12.018078,11.365331,4.681849,-1.729532,0.439111,0.571154
0.010000,11.415907,12.043395,11.411977,4.664597,-1.725222,0.431067,0.576238
0.010000,11.454812,12.068816,11.458451,4.647387,-1.720980,0.424215,0.581291
0.010000,11.493445,12.094338,11.504753,4.630219,-1.716794,0.418571,0.586313
0.010000,11.531791,12.119811,11.550789,4.603555,-2.666365,-94.957118,0.583946
0.010000,11.579903,12.151340,11.608312,5.752300,114.874430,11754.079505,0.576269
0.010000,11.628074,12.182382,11.665618,5.730630,-2.166963,-11704.139270,0.568609
0.010000,11.676296,12.212938,11.722706,5.708787,-2.184314,-1.735168,0.560971
0.010000,11.724563,12.243009,11.779574,5.686780,-2.200698,-1.638399,0.553354
0.010000,11.772867,12.272595,11.836219,5.664508,-2.227148,-2.644919,0.545762
0.010000,11.821203,12.301699,11.892640,5.642135,-2.237331,-1.018290,0.538197
0.010000,11.869562,12.330322,11.948835,5.619508,-2.262687,-2.535685,0.530660
0.010000,11.917938,12.358466,12.004802,5.596688,-2.282048,-1.936048,0.523154
0.010000,11.966324,12.386132,12.060540,5.573764,-2.292413,-1.036546,0.515681
0.010000,12.014713,12.413324,12.116046,5.550579,-2.318487,-2.607338,0.508243
0.010000,12.063098,12.440043,12.171318,5.527227,-2.335200,-1.671327,0.500841
0.010000,12.111473,12.466292,12.226356,5.503771,-2.345615,-1.041457,0.493478
0.010000,12.159831,12.492074,12.281156,5.480078,-2.369210,-2.359559,0.486155
0.010000,12.208164,12.517391,12.335719,5.456227,-2.385098,-1.588741,0.478874
0.010000,12.256466,12.542247,12.390041,5.432250,-2.397749,-1.265099,0.471637
0.010000,12.304731,12.566645,12.444122,5.408112,-2.413770,-1.602161,0.464446
0.010000,12.352952,12.590589,12.497960,5.383803,-2.430911,-1.714076,0.457301
0.010000,12.401122,12.614081,12.551554,5.359353,-2.445058,-1.414748,0.450206
0.010000,12.449235,12.637126,12.604902,5.334766,-2.458615,-1.355703,0.443161
0.010000,12.497286,12.659727,12.658002,5.310075,-2.469138,-1.052224,0.436167
0.010000,12.545267,12.681889,12.710855,5.285223,-2.485205,-1.606743,0.429227
0.010000,12.593173,12.703616,12.763457,5.260249,-2.497403,-1.219838,0.422341
0.010000,12.640998,12.724911,12.815809,5.235158,-2.509099,-1.169561,0.415511
0.010000,12.688735,12.745780,12.867908,5.209955,-2.520285,-1.118603,0.408738
0.010000,12.736380,12.766226,12.919755,5.184646,-2.530956,-1.067078,0.402023
0.010000,12.783926,12.786255,12.971347,5.159235,-2.541107,-1.015101,0.395368
0.010000,12.831368,12.805871,13.022684,5.133727,-2.550735,-0.962783,0.388773
0.010000,12.878700,12.825079,13.073766,5.108129,-2.559837,-0.910234,0.382240
0.010000,12.925918,12.843884,13.124590,5.082445,-2.568413,-0.857564,0.375768
0.010000,12.973015,12.862290,13.175157,5.056680,-2.576461,-0.804876,0.369360
0.010000,13.019988,12.880304,13.225465,5.030840,-2.583984,-0.752273,0.363016
0.010000,13.066832,12.897929,13.275514,5.004930,-2.590983,-0.699855,0.356737
0.010000,13.113540,12.915171,13.325304,4.978956,-2.597460,-0.647718,0.350524
0.010000,13.160110,12.932036,13.374833,4.952922,-2.603419,-0.595954,0.344376
0.010000,13.206536,12.948528,13.424102,4.926833,-2.608866,-0.544651,0.338295
0.010000,13.252814,12.964653,13.473109,4.900695,-2.613805,-0.493894,0.332282
0.010000,13.298940,12.980417,13.521854,4.874526,-2.616897,-0.309205,0.326336
0.010000,13.344910,12.995824,13.570337,4.848307,-2.621870,-0.497325,0.320458
0.010000,13.390719,13.010880,13.618557,4.822050,-2.625672,-0.380161,0.314649
0.010000,13.436365,13.025591,13.666515,4.795764,-2.628676,-0.300394,0.308909
0.010000,13.481843,13.039962,13.714210,4.769469,-2.629440,-0.076392,0.303238
0.010000,13.527150,13.053999,13.761641,4.743137,-2.633222,-0.378268,0.297636
0.010000,13.572282,13.067707,13.808809,4.716788,-2.634943,-0.172023,0.292104
0.010000,13.617236,13.081091,13.855713,4.690444,-2.634382,0.056078,0.286642
0.010000,13.662010,13.094157,13.902354,4.664072,-2.637202,-0.282053,0.281249
0.010000,13.706599,13.106910,13.948731,4.637709,-2.636259,0.094328,0.275926
0.010000,13.751001,13.119356,13.994845,4.611338,-2.637121,-0.086199,0.270673
0.010000,13.795213,13.131501,14.040694,4.584976,-2.636222,0.089944,0.265489
0.010000,13.839232,13.143349,14.086280,4.558615,-2.636100,0.012117,0.260376
0.010000,13.883056,13.154907,14.131603,4.532271,-2.634388,0.171287,0.255331
0.010000,13.926683,13.166179,14.176662,4.505932,-2.633920,0.046767,0.250357
0.010000,13.970110,13.177170,14.221459,4.479618,-2.631385,0.253532,0.245451
0.010000,14.013334,13.187887,14.265992,4.453317,-2.630048,0.133704,0.240615
0.010000,14.056355,13.198334,14.310262,4.427039,-2.627842,0.220521,0.235847
0.010000,14.099168,13.208516,14.354270,4.400789,-2.624955,0.288695,0.231148
0.010000,14.141774,13.218439,14.398016,4.374565,-2.622471,0.248470,0.226517
0.010000,14.184169,13.228108,14.441499,4.348369,-2.619533,0.293774,0.221955
0.010000,14.226352,13.237528,14.484722,4.322207,-2.616267,0.326587,0.217459
0.010000,14.268321,13.246704,14.527682,4.296079,-2.612804,0.346333,0.213031
0.010000,14.310075,13.255641,14.570382,4.269987,-2.609129,0.367500,0.208670
0.010000,14.351613,13.264343,14.612822,4.243934,-2.605350,0.377921,0.204375
0.010000,14.392932,13.272816,14.655001,4.217921,-2.601332,0.401775,0.200146
0.010000,14.434032,13.281064,14.696920,4.191949,-2.597132,0.419930,0.195982
0.010000,14.474912,13.289093,14.738580,4.166022,-2.592774,0.435854,0.191883
0.010000,14.515569,13.296906,14.779982,4.140139,-2.588263,0.451046,0.187849
0.010000,14.556003,13.304509,14.821125,4.114303,-2.583608,0.465509,0.183879
0.010000,14.596214,13.311906,14.862010,4.088515,-2.578816,0.479250,0.179972
0.010000,14.636199,13.319102,14.902638,4.062774,-2.574065,0.475088,0.176129
0.010000,14.675959,13.326100,14.943009,4.037085,-2.568938,0.512729,0.172347
0.010000,14.715492,13.332906,14.983123,4.011447,-2.563787,0.515071,0.168628
0.010000,14.754797,13.339523,15.022982,3.985861,-2.558527,0.525987,0.164969
0.010000,14.793875,13.345957,15.062585,3.960330,-2.553198,0.532934,0.161372
0.010000,14.832723,13.352210,15.101933,3.934847,-2.548261,0.493703,0.157834
0.010000,14.871342,13.358288,15.141028,3.909424,-2.542301,0.596001,0.154356
0.010000,14.909731,13.364193,15.179868,3.884057,-2.536716,0.558465,0.150937
0.010000,14.947889,13.369931,15.218456,3.858738,-2.531853,0.486321,0.147576
0.010000,14.985817,13.375505,15.256790,3.833485,-2.525368,0.648490,0.144273
0.010000,15.023513,13.380919,15.294873,3.808281,-2.520316,0.505228,0.141027
0.010000,15.060977,13.386177,15.332705,3.783139,-2.514188,0.612795,0.137837
0.010000,15.098209,13.391282,15.370285,3.758052,-2.508785,0.540281,0.134703
0.010000,15.135209,13.396239,15.407615,3.733026,-2.502577,0.620750,0.131625
0.010000,15.171976,13.401050,15.444696,3.708051,-2.497453,0.512442,0.128600
0.010000,15.208510,13.405719,15.481527,3.683143,-2.490802,0.665056,0.125630
0.010000,15.244811,13.410249,15.518110,3.658286,-2.485720,0.508249,0.122713
0.010000,15.280879,13.414645,15.554445,3.633490,-2.479587,0.613268,0.119849
0.010000,15.316714,13.418910,15.590533,3.608756,-2.473470,0.611769,0.117036
0.010000,15.352316,13.423045,15.626374,3.584077,-2.467850,0.561912,0.114275
0.010000,15.387683,13.427056,15.661968,3.559452,-2.462460,0.539081,0.111565
0.010000,15.422818,13.430945,15.697317,3.534892,-2.456071,0.638917,0.108904
0.010000,15.457719,13.434715,15.732421,3.510389,-2.450298,0.577247,0.106293
0.010000,15.492386,13.438368,15.767280,3.485943,-2.444531,0.576660,0.103731
0.010000,15.526820,13.441909,15.801896,3.461556,-2.438772,0.575906,0.101217
0.010000,15.561021,13.445340,15.836268,3.437225,-2.433023,0.574983,0.098751
0.010000,15.594988,13.448664,15.870398,3.412953,-2.427284,0.573892,0.096331
0.010000,15.628722,13.451883,15.904285,3.388737,-2.421557,0.572634,0.093958
0.010000,15.662223,13.455001,15.937931,3.364579,-2.415845,0.571208,0.091630
0.010000,15.695491,13.458019,15.971336,3.340477,-2.410149,0.569615,0.089348
0.010000,15.728527,13.460941,16.004500,3.316432,-2.404471,0.567855,0.087109
0.010000,15.761329,13.463770,16.037424,3.292444,-2.398811,0.565929,0.084915
0.010000,15.793900,13.466507,16.070109,3.268513,-2.393173,0.563837,0.082764
0.010000,15.826238,13.469155,16.102556,3.244637,-2.387557,0.561580,0.080655
0.010000,15.858344,13.471717,16.134764,3.220809,-2.382842,0.471496,0.078589
0.010000,15.890218,13.474194,16.166734,3.197043,-2.376557,0.628531,0.076563
0.010000,15.921861,13.476590,16.198468,3.173333,-2.370984,0.557233,0.074579
0.010000,15.953272,13.478906,16.229964,3.149672,-2.366124,0.486082,0.072635
0.010000,15.984453,13.481145,16.261225,3.126065,-2.360738,0.538586,0.070730
0.010000,16.015402,13.483309,16.292250,3.102518,-2.354663,0.607486,0.068864
0.010000,16.046121,13.485399,16.323040,3.079011,-2.350743,0.392039,0.067037
0.010000,16.076610,13.487419,16.353596,3.055569,-2.344111,0.663155,0.065248
0.010000,16.106869,13.489369,16.383918,3.032169,-2.340051,0.405977,0.063496
0.010000,16.136898,13.491253,16.414006,3.008830,-2.333861,0.619031,0.061781
0.010000,16.166698,13.493071,16.443861,2.985531,-2.329968,0.389317,0.060102
0.010000,16.196269,13.494826,16.473484,2.962294,-2.323648,0.631979,0.058458
0.010000,16.225611,13.496519,16.502875,2.939097,-2.319738,0.390969,0.056850
0.010000,16.254725,13.498153,16.532035,2.915955,-2.314214,0.552438,0.055276
0.010000,16.283611,13.499729,16.560963,2.892864,-2.309047,0.516657,0.053737
0.010000,16.312269,13.501249,16.589662,2.869816,-2.304859,0.418781,0.052230
0.010000,16.340699,13.502714,16.618130,2.846817,-2.299837,0.502253,0.050757
0.010000,16.368902,13.504126,16.646368,2.823870,-2.294758,0.507905,0.049316
0.010000,16.396879,13.505487,16.674378,2.800969,-2.290106,0.465200,0.047908
0.010000,16.424629,13.506799,16.702159,2.778114,-2.285489,0.461713,0.046530
0.010000,16.452153,13.508062,16.729712,2.755304,-2.280945,0.454325,0.045184
0.010000,16.479452,13.509278,16.757038,2.732538,-2.276578,0.436750,0.043867
0.010000,16.506525,13.510449,16.784136,2.709821,-2.271735,0.484349,0.042581
0.010000,16.533372,13.511576,16.811007,2.687148,-2.267261,0.447339,0.041324
0.010000,16.559995,13.512660,16.837653,2.664520,-2.262824,0.443721,0.040096
0.010000,16.586394,13.513703,16.864072,2.641936,-2.258423,0.440074,0.038897
0.010000,16.612569,13.514707,16.890266,2.619395,-2.254134,0.428947,0.037725
0.010000,16.638520,13.515671,16.916235,2.596894,-2.250044,0.409011,0.036582
0.010000,16.664248,13.516598,16.941979,2.574439,-2.245539,0.450411,0.035465
0.010000,16.689752,13.517489,16.967499,2.552026,-2.241284,0.425501,0.034374
0.010000,16.715034,13.518345,16.992796,2.529655,-2.237068,0.421690,0.033310
0.010000,16.740094,13.519167,17.017869,2.507326,-2.232889,0.417836,0.032272
0.010000,16.764932,13.519956,17.042720,2.485033,-2.229388,0.350085,0.031258
0.010000,16.789548,13.520714,17.067347,2.462783,-2.224958,0.443085,0.030270
0.010000,16.813943,13.521441,17.091753,2.440576,-2.220663,0.429404,0.029306
0.010000,16.838117,13.522138,17.115937,2.418403,-2.217316,0.334738,0.028365
0.010000,16.862071,13.522807,17.139900,2.396271,-2.213175,0.414065,0.027449
0.010000,16.885804,13.523448,17.163642,2.374182,-2.208957,0.421853,0.026555
0.010000,16.909317,13.524062,17.187163,2.352121,-2.206045,0.291158,0.025684
0.010000,16.932611,13.524650,17.210464,2.330110,-2.201134,0.491136,0.024836
0.010000,16.955685,13.525214,17.233545,2.308123,-2.198662,0.247223,0.024009
0.010000,16.978540,13.525754,17.256407,2.286185,-2.193823,0.483920,0.023203
0.010000,17.001177,13.526270,17.279050,2.264275,-2.191054,0.276839,0.022419
0.010000,17.023596,13.526764,17.301474,2.242405,-2.186996,0.405784,0.021655
0.010000,17.045797,13.527237,17.323680,2.220572,-2.183254,0.374214,0.020912
0.010000,17.067780,13.527688,17.345667,2.198766,-2.180627,0.262671,0.020188
0.010000,17.089545,13.528120,17.367437,2.177003,-2.176335,0.429224,0.019484
0.010000,17.111094,13.528533,17.388990,2.155273,-2.172987,0.334790,0.018799
0.010000,17.132426,13.528927,17.410326,2.133574,-2.169850,0.313701,0.018133
0.010000,17.153542,13.529303,17.431445,2.111907,-2.166665,0.318515,0.017485
0.010000,17.174442,13.529662,17.452348,2.090277,-2.163029,0.363652,0.016856
0.010000,17.195126,13.530004,17.473034,2.068679,-2.159802,0.322636,0.016244
0.010000,17.215594,13.530330,17.493506,2.047113,-2.156606,0.319621,0.015649
0.010000,17.235847,13.530641,17.513761,2.025579,-2.153440,0.316582,0.015071
0.010000,17.255886,13.530938,17.533802,2.004076,-2.150305,0.313518,0.014510
0.010000,17.275710,13.531220,17.553628,1.982604,-2.147201,0.310426,0.013965
0.010000,17.295320,13.531489,17.573240,1.961162,-2.144128,0.307307,0.013436
0.010000,17.314716,13.531744,17.592637,1.939752,-2.141086,0.304159,0.012923
0.010000,17.333898,13.531987,17.611821,1.918371,-2.138076,0.300979,0.012425
0.010000,17.352867,13.532219,17.630791,1.897020,-2.135099,0.297768,0.011942
0.010000,17.371622,13.532438,17.649548,1.875698,-2.132153,0.294525,0.011474
0.010000,17.390165,13.532647,17.668092,1.854406,-2.129241,0.291248,0.011020
0.010000,17.408496,13.532845,17.686424,1.833139,-2.126694,0.254717,0.010580
0.010000,17.426614,13.533032,17.704543,1.811902,-2.123673,0.302049,0.010154
0.010000,17.444520,13.533211,17.722450,1.790695,-2.120743,0.292991,0.009741
0.010000,17.462214,13.533379,17.740145,1.769515,-2.117985,0.275798,0.009341
0.010000,17.479697,13.533539,17.757628,1.748357,-2.115833,0.215246,0.008954
0.010000,17.496968,13.533691,17.774901,1.727231,-2.112530,0.330334,0.008580
0.010000,17.514029,13.533834,17.791962,1.706130,-2.110101,0.242833,0.008218
0.010000,17.530879,13.533970,17.808812,1.685053,-2.107712,0.238900,0.007868
0.010000,17.547519,13.534098,17.825453,1.664006,-2.104693,0.301909,0.007529
0.010000,17.563948,13.534219,17.841882,1.642978,-2.102787,0.190572,0.007202
0.010000,17.580167,13.534333,17.858102,1.621982,-2.099633,0.315419,0.006886
0.010000,17.596177,13.534441,17.874112,1.601004,-2.097760,0.187344,0.006581
0.010000,17.611977,13.534542,17.889913,1.580055,-2.094898,0.286206,0.006287
0.010000,17.627568,13.534638,17.905504,1.559129,-2.092659,0.223923,0.006003
0.010000,17.642950,13.534728,17.920886,1.538224,-2.090463,0.219597,0.005728
0.010000,17.658124,13.534813,17.936060,1.517346,-2.087820,0.264238,0.005464
0.010000,17.673088,13.534893,17.951025,1.496489,-2.085689,0.213089,0.005210
0.010000,17.687845,13.534968,17.965781,1.475653,-2.083613,0.207650,0.004964
0.010000,17.702393,13.535039,17.980330,1.454842,-2.081120,0.249269,0.004728
0.010000,17.716733,13.535105,17.994670,1.434052,-2.078960,0.215962,0.004500
0.010000,17.730866,13.535167,18.008803,1.413284,-2.076827,0.213323,0.004282
0.010000,17.744791,13.535225,18.022728,1.392536,-2.074743,0.208411,0.004071
0.010000,17.758509,13.535279,18.036446,1.371809,-2.072739,0.200420,0.003869
0.010000,17.772020,13.535330,18.049957,1.351104,-2.070545,0.219380,0.003675
0.010000,17.785324,13.535378,18.063262,1.330418,-2.068523,0.202175,0.003488
0.010000,17.798422,13.535423,18.076359,1.309753,-2.066530,0.199376,0.003309
0.010000,17.811313,13.535464,18.089250,1.289107,-2.064564,0.196545,0.003137
0.010000,17.823997,13.535503,18.101935,1.268481,-2.062627,0.193682,0.002972
0.010000,17.836476,13.535539,18.114414,1.247874,-2.060720,0.190787,0.002814
0.010000,17.848749,13.535573,18.126687,1.227285,-2.058934,0.178597,0.002662
0.010000,17.860816,13.535604,18.138754,1.206714,-2.057053,0.188023,0.002517
0.010000,17.872678,13.535633,18.150615,1.186162,-2.055195,0.185879,0.002379
0.010000,17.884334,13.535660,18.162272,1.165628,-2.053403,0.179170,0.002246
0.010000,17.895785,13.535685,18.173723,1.145112,-2.051642,0.176117,0.002119
0.010000,17.907031,13.535708,18.184969,1.124611,-2.050059,0.158243,0.001998
0.010000,17.918072,13.535729,18.196010,1.104128,-2.048333,0.172577,0.001882
0.010000,17.928909,13.535749,18.206847,1.083662,-2.046553,0.178092,0.001772
0.010000,17.939541,13.535767,18.217479,1.063212,-2.045063,0.149004,0.001667
0.010000,17.949969,13.535784,18.227907,1.042777,-2.043480,0.158301,0.001566
0.010000,17.960192,13.535800,18.238130,1.022359,-2.041739,0.174076,0.001471
0.010000,17.970212,13.535814,18.248150,1.001954,-2.040538,0.120083,0.001380
0.010000,17.980027,13.535827,18.257965,0.981567,-2.038671,0.186657,0.001294
0.010000,17.989639,13.535839,18.267577,0.961192,-2.037543,0.112814,0.001211
0.010000,17.999048,13.535850,18.276986,0.940834,-2.035790,0.175329,0.001133
0.010000,18.008253,13.535860,18.286191,0.920487,-2.034682,0.110804,0.001059
0.010000,18.017254,13.535870,18.295192,0.900156,-2.033080,0.160212,0.000989
0.010000,18.026053,13.535878,18.303991,0.879838,-2.031806,0.127412,0.000923
0.010000,18.034648,13.535886,18.312586,0.859533,-2.030582,0.122377,0.000860
0.010000,18.043040,13.535893,18.320978,0.839241,-2.029159,0.142241,0.000800
0.010000,18.051230,13.535899,18.329168,0.818962,-2.027927,0.123286,0.000744
0.010000,18.059217,13.535905,18.337155,0.798693,-2.026838,0.108830,0.000690
0.010000,18.067001,13.535910,18.344939,0.778438,-2.025531,0.130749,0.000640
0.010000,18.074583,13.535914,18.352521,0.758194,-2.024367,0.116360,0.000593
0.010000,18.081963,13.535919,18.359901,0.737962,-2.023245,0.112266,0.000548
0.010000,18.089140,13.535922,18.367078,0.717740,-2.022150,0.109488,0.000506
0.010000,18.096115,13.535926,18.374053,0.697530,-2.021083,0.106688,0.000467
0.010000,18.102889,13.535929,18.380827,0.677329,-2.020044,0.103866,0.000430
0.010000,18.109460,13.535932,18.387398,0.657139,-2.019034,0.101023,0.000395
0.010000,18.115830,13.535934,18.393768,0.636958,-2.018052,0.098158,0.000363
0.010000,18.121998,13.535936,18.399936,0.616787,-2.017100,0.095274,0.000332
0.010000,18.127964,13.535938,18.405902,0.596625,-2.016176,0.092369,0.000304
0.010000,18.133729,13.535940,18.411667,0.576473,-2.015281,0.089446,0.000277
0.010000,18.139292,13.535941,18.417230,0.556329,-2.014416,0.086504,0.000252
0.010000,18.144654,13.535942,18.422592,0.536193,-2.013581,0.083543,0.000229
0.010000,18.149814,13.535944,18.427752,0.516065,-2.012775,0.080565,0.000207
0.010000,18.154774,13.535945,18.432712,0.495945,-2.012027,0.074799,0.000187
0.010000,18.159532,13.535945,18.437470,0.475832,-2.011313,0.071471,0.000169
0.010000,18.164089,13.535946,18.442027,0.455726,-2.010540,0.077236,0.000151
0.010000,18.168446,13.535947,18.446384,0.435628,-2.009854,0.068632,0.000135
0.010000,18.172601,13.535947,18.450539,0.415535,-2.009297,0.055684,0.000121
0.010000,18.176556,13.535948,18.454494,0.395449,-2.008579,0.071761,0.000107
0.010000,18.180309,13.535948,18.458247,0.375369,-2.008016,0.056374,0.000094
0.010000,18.183862,13.535948,18.461800,0.355294,-2.007489,0.052681,0.000083
0.010000,18.187214,13.535949,18.465152,0.335225,-2.006892,0.059701,0.000072
0.010000,18.190366,13.535949,18.468304,0.315160,-2.006475,0.041700,0.000063
0.010000,18.193317,13.535949,18.471255,0.295101,-2.005921,0.055402,0.000054
0.010000,18.196068,13.535949,18.474006,0.275045,-2.005544,0.037688,0.000046
0.010000,18.198617,13.535949,18.476555,0.254994,-2.005098,0.044617,0.000039
0.010000,18.200967,13.535949,18.478905,0.234947,-2.004703,0.039516,0.000032
0.010000,18.203116,13.535950,18.481054,0.214903,-2.004418,0.028482,0.000027
0.010000,18.205065,13.535950,18.483003,0.194863,-2.004029,0.038892,0.000021
0.010000,18.206813,13.535950,18.484751,0.174826,-2.003744,0.028450,0.000017
0.010000,18.208361,13.535950,18.486299,0.154790,-2.003530,0.021435,0.000013
0.010000,18.209708,13.535950,18.487646,0.134758,-2.003268,0.026239,0.000010
0.010000,18.210856,13.535950,18.488794,0.114727,-2.003059,0.020900,0.000007
0.010000,18.211803,13.535950,18.489741,0.094698,-2.002891,0.016792,0.000004
0.010000,18.212549,13.535950,18.490487,0.074671,-2.002752,0.013866,0.000003
0.010000,18.213096,13.535950,18.491034,0.054644,-2.002643,0.010937,0.000001
0.010000,18.213442,13.535950,18.491380,0.034619,-2.002563,0.008006,0.000000
0.010000,18.213601,13.535950,18.491539,0.015951,-1.866724,13.583846,0.000000
0.010000,18.213638,13.535950,18.491576,0.003648,-1.230293,63.643116,0.000000
0.010000,18.213638,13.535950,18.491576,0.000000,-0.364834,86.545919,0.000000
