dt,x,y,position,velocity,acceleration,jerk,heading
0.010000,0.303831,8.655328,0.000050,0.009991,0.999058,99.905768,0.000324
0.010000,0.303826,8.655328,0.000055,0.000497,-0.949330,-194.838800,0.000318
0.010000,0.303816,8.655328,0.000065,0.000994,0.049713,99.904323,0.000307
0.010000,0.303802,8.655328,0.000080,0.001491,0.049684,-0.002889,0.000291
0.010000,0.303782,8.655328,0.000100,0.001988,0.049641,-0.004334,0.000269
0.010000,0.303757,8.655328,0.000124,0.002483,0.049583,-0.005778,0.000242
0.010000,0.303727,8.655328,0.000154,0.002979,0.049511,-0.007222,0.000210
0.010000,0.303692,8.655328,0.000189,0.003473,0.049424,-0.008666,0.000172
0.010000,0.303653,8.655328,0.000229,0.003966,0.049323,-0.010110,0.000128
0.010000,0.303608,8.655328,0.000273,0.004458,0.049207,-0.011554,0.000079
0.010000,0.303559,8.655328,0.000323,0.004949,0.049077,-0.012998,0.000025
0.010000,0.304763,8.655328,0.001527,0.120472,11.552323,1150.324604,6.283151
0.010000,0.307102,8.655328,0.003866,0.233845,11.337242,-21.508114,6.283087
0.010000,0.309635,8.655327,0.006399,0.253342,1.949752,-938.749037,6.283016
0.010000,0.312364,8.655327,0.009128,0.272842,1.950003,0.025105,6.282941
0.010000,0.315287,8.655326,0.012051,0.292345,1.950240,0.023678,6.282860
0.010000,0.318405,8.655325,0.015170,0.311835,1.949074,-0.116606,6.282775
0.010000,0.321719,8.655323,0.018483,0.331343,1.950776,0.170219,6.282683
0.010000,0.325227,8.655321,0.021992,0.350854,1.951104,0.032765,6.282587
0.010000,0.328931,8.655319,0.025695,0.370359,1.950464,-0.063918,6.282486
0.010000,0.332830,8.655316,0.029594,0.389868,1.950906,0.044124,6.282379
0.010000,0.336924,8.655312,0.033688,0.409389,1.952106,0.120017,6.282267
0.010000,0.341213,8.655308,0.037977,0.428901,1.951240,-0.086621,6.282151
0.010000,0.345697,8.655303,0.042461,0.448421,1.952029,0.078955,6.282029
0.010000,0.350376,8.655298,0.047140,0.467954,1.953233,0.120420,6.281902
0.010000,0.355251,8.655291,0.052015,0.487468,1.951432,-0.180154,6.281770
0.010000,0.360321,8.655284,0.057085,0.507009,1.954124,0.269215,6.281634
0.010000,0.365586,8.655275,0.062351,0.526538,1.952885,-0.123908,6.281492
0.010000,0.371047,8.655265,0.067811,0.546081,1.954249,0.136445,6.281346
0.010000,0.376703,8.655254,0.073468,0.565622,1.954126,-0.012345,6.281195
0.010000,0.382555,8.655242,0.079319,0.585170,1.954784,0.065772,6.281039
0.010000,0.388602,8.655229,0.085367,0.604720,1.955067,0.028377,6.280878
0.010000,0.394845,8.655214,0.091609,0.624278,1.955768,0.070031,6.280713
0.010000,0.401283,8.655198,0.098048,0.643835,1.955713,-0.005453,6.280543
0.010000,0.407917,8.655179,0.104682,0.663407,1.957197,0.148364,6.280369
0.010000,0.414747,8.655160,0.111511,0.682968,1.956067,-0.112976,6.280190
0.010000,0.421773,8.655138,0.118537,0.702552,1.958452,0.238537,6.280007
0.010000,0.428994,8.655114,0.125758,0.722126,1.957360,-0.109229,6.279819
0.010000,0.436411,8.655089,0.133175,0.741714,1.958770,0.140955,6.279627
0.010000,0.444024,8.655061,0.140788,0.761312,1.959824,0.105406,6.279431
0.010000,0.451833,8.655031,0.148597,0.780897,1.958534,-0.129020,6.279230
0.010000,0.459838,8.654998,0.156602,0.800505,1.960805,0.227159,6.279025
0.010000,0.468039,8.654963,0.164804,0.820119,1.961369,0.056419,6.278817
0.010000,0.476436,8.654926,0.173201,0.839726,1.960695,-0.067438,6.278604
0.010000,0.485030,8.654885,0.181794,0.859348,1.962191,0.149640,6.278387
0.010000,0.493819,8.654842,0.190584,0.878979,1.963087,0.089574,6.278167
0.010000,0.502805,8.654796,0.199570,0.898615,1.963664,0.057687,6.277943
0.010000,0.511988,8.654747,0.208753,0.918248,1.963261,-0.040247,6.277715
0.010000,0.521366,8.654694,0.218132,0.937896,1.964817,0.155576,6.277483
0.010000,0.530942,8.654639,0.227707,0.957552,1.965609,0.079141,6.277248
0.010000,0.540714,8.654580,0.237479,0.977215,1.966262,0.065316,6.277009
0.010000,0.550682,8.654517,0.247448,0.996884,1.966934,0.067227,6.276767
0.010000,0.560848,8.654450,0.257614,1.016559,1.967516,0.058178,6.276521
0.010000,0.571210,8.654380,0.267976,1.036238,1.967836,0.032054,6.276273
0.010000,0.581769,8.654306,0.278536,1.055929,1.969157,0.132028,6.276021
0.010000,0.592525,8.654227,0.289292,1.075628,1.969903,0.074656,6.275766
0.010000,0.603478,8.654144,0.300245,1.095335,1.970668,0.076516,6.275508
0.010000,0.614628,8.654057,0.311396,1.115050,1.971452,0.078364,6.275247
0.010000,0.625976,8.653966,0.322743,1.134772,1.972254,0.080200,6.274983
0.010000,0.637520,8.653870,0.334288,1.154503,1.973074,0.082025,6.274716
0.010000,0.649262,8.653769,0.346031,1.174242,1.973913,0.083837,6.274447
0.010000,0.661202,8.653663,0.357971,1.193990,1.974769,0.085637,6.274176
0.010000,0.673339,8.653552,0.370108,1.213746,1.975643,0.087423,6.273901
0.010000,0.685673,8.653435,0.382443,1.233511,1.976535,0.089196,6.273625
0.010000,0.698205,8.653314,0.394976,1.253286,1.977445,0.090956,6.273346
0.010000,0.710935,8.653187,0.407707,1.273070,1.978372,0.092701,6.273065
0.010000,0.723863,8.653054,0.420636,1.292863,1.979316,0.094431,6.272782
0.010000,0.736989,8.652916,0.433762,1.312666,1.980278,0.096146,6.272497
0.010000,0.750313,8.652771,0.447087,1.332473,1.980754,0.047638,6.272210
0.010000,0.763835,8.652621,0.460610,1.352294,1.982041,0.128728,6.271922
0.010000,0.777556,8.652464,0.474331,1.372125,1.983192,0.115104,6.271632
0.010000,0.791474,8.652302,0.488251,1.391968,1.984222,0.102994,6.271340
0.010000,0.805592,8.652132,0.502369,1.411820,1.985268,0.104629,6.271047
0.010000,0.819907,8.651956,0.516686,1.431683,1.986262,0.099308,6.270752
0.010000,0.834422,8.651774,0.531201,1.451547,1.986405,0.014332,6.270457
0.010000,0.849135,8.651584,0.545916,1.471431,1.988440,0.203558,6.270160
0.010000,0.864047,8.651388,0.560829,1.491327,1.989552,0.111144,6.269862
0.010000,0.879158,8.651184,0.575941,1.511232,1.990488,0.093630,6.269564
0.010000,0.894468,8.650973,0.591253,1.531139,1.990674,0.018591,6.269264
0.010000,0.909977,8.650755,0.606763,1.551068,1.992921,0.224744,6.268964
0.010000,0.925685,8.650529,0.622473,1.571009,1.994095,0.117365,6.268664
0.010000,0.941593,8.650296,0.638383,1.590947,1.993820,-0.027469,6.268363
0.010000,0.957700,8.650055,0.654492,1.610911,1.996377,0.255631,6.268062
0.010000,0.974007,8.649806,0.670801,1.630884,1.997309,0.093198,6.267761
0.010000,0.990514,8.649549,0.687309,1.650859,1.997543,0.023452,6.267460
0.010000,1.007220,8.649283,0.704018,1.670860,2.000087,0.254340,6.267159
0.010000,1.024127,8.649010,0.720927,1.690860,2.000004,-0.008295,6.266858
0.010000,1.041233,8.648728,0.738035,1.710881,2.002132,0.212793,6.266558
0.010000,1.058540,8.648437,0.755344,1.730911,2.002917,0.078507,6.266258
0.010000,1.076047,8.648138,0.772854,1.750953,2.004198,0.128120,6.265959
0.010000,1.093754,8.647831,0.790564,1.771009,2.005609,0.141143,6.265660
0.010000,1.111662,8.647514,0.808475,1.791075,2.006610,0.100100,6.265363
0.010000,1.129771,8.647189,0.826586,1.811156,2.008099,0.148824,6.265067
0.010000,1.148080,8.646854,0.844899,1.831249,2.009348,0.124992,6.264772
0.010000,1.166591,8.646511,0.863412,1.851353,2.010402,0.105334,6.264478
0.010000,1.185302,8.646158,0.882127,1.871477,2.012391,0.198959,6.264186
0.010000,1.204215,8.645796,0.901043,1.891603,2.012537,0.014546,6.263895
0.010000,1.223329,8.645424,0.920161,1.911754,2.015154,0.261758,6.263607
0.010000,1.242644,8.645043,0.939480,1.931911,2.015648,0.049367,6.263320
0.010000,1.262161,8.644653,0.959001,1.952083,2.017227,0.157857,6.263035
0.010000,1.281880,8.644252,0.978723,1.972274,2.019081,0.185455,6.262753
0.010000,1.301800,8.643843,0.998648,1.992470,2.019628,0.054670,6.262473
0.010000,1.321922,8.643423,1.018775,2.012685,2.021498,0.187011,6.262195
0.010000,1.342247,8.642993,1.039104,2.032917,2.023170,0.167225,6.261920
0.010000,1.362774,8.642554,1.059636,2.053159,2.024250,0.107969,6.261648
0.010000,1.383503,8.642105,1.080370,2.073413,2.025420,0.116999,6.261379
0.010000,1.404435,8.641645,1.101307,2.093687,2.027416,0.199602,6.261114
0.010000,1.425570,8.641176,1.122446,2.113976,2.028837,0.142125,6.260851
0.010000,1.446907,8.640697,1.143789,2.134278,2.030250,0.141292,6.260592
0.010000,1.468447,8.640207,1.165335,2.154591,2.031219,0.096893,6.260337
0.010000,1.490191,8.639708,1.187084,2.174923,2.033286,0.206652,6.260086
0.010000,1.512138,8.639198,1.209037,2.195271,2.034777,0.149128,6.259838
0.010000,1.534288,8.638678,1.231193,2.215634,2.036286,0.150906,6.259595
0.010000,1.556642,8.638148,1.253554,2.236012,2.037813,0.152663,6.259356
0.010000,1.579199,8.637607,1.276118,2.256406,2.039357,0.154397,6.259122
0.010000,1.601961,8.637057,1.298886,2.276815,2.040918,0.156109,6.258892
0.010000,1.624926,8.636496,1.321858,2.297239,2.042365,0.144769,6.258667
0.010000,1.648096,8.635926,1.345035,2.317679,2.044093,0.172766,6.258447
0.010000,1.671470,8.635345,1.368416,2.338137,2.045747,0.165410,6.258233
0.010000,1.695049,8.634754,1.392002,2.358611,2.047371,0.162353,6.258024
0.010000,1.718832,8.634153,1.415793,2.379101,2.049010,0.163941,6.257820
0.010000,1.742821,8.633542,1.439790,2.399607,2.050665,0.165503,6.257622
0.010000,1.767014,8.632921,1.463991,2.420131,2.052335,0.167040,6.257430
0.010000,1.791413,8.632290,1.488398,2.440671,2.054021,0.168550,6.257244
0.010000,1.816017,8.631649,1.513010,2.461228,2.055721,0.170035,6.257064
0.010000,1.840826,8.630999,1.537828,2.481802,2.057374,0.165264,6.256891
0.010000,1.865841,8.630339,1.562852,2.502393,2.059077,0.170254,6.256725
0.010000,1.891062,8.629670,1.588082,2.523002,2.060897,0.182026,6.256565
0.010000,1.916490,8.628991,1.613518,2.543628,2.062658,0.176091,6.256413
0.010000,1.942123,8.628302,1.639161,2.564273,2.064432,0.177442,6.256267
0.010000,1.967963,8.627605,1.665010,2.584935,2.066220,0.178764,6.256129
0.010000,1.994010,8.626898,1.691066,2.605615,2.068020,0.180058,6.255999
0.010000,2.020263,8.626183,1.717329,2.626313,2.069796,0.177593,6.255877
0.010000,2.046723,8.625458,1.743800,2.647028,2.071474,0.167761,6.255762
0.010000,2.073391,8.624725,1.770477,2.667763,2.073513,0.203917,6.255656
0.010000,2.100266,8.623984,1.797362,2.688516,2.075367,0.185354,6.255559
0.010000,2.127348,8.623234,1.824455,2.709289,2.077232,0.186508,6.255469
0.010000,2.154639,8.622477,1.851756,2.730078,2.078933,0.170174,6.255389
0.010000,2.182137,8.621711,1.879265,2.750888,2.081001,0.206716,6.255318
0.010000,2.209843,8.620938,1.906982,2.771717,2.082930,0.192949,6.255256
0.010000,2.237758,8.620157,1.934908,2.792565,2.084769,0.183869,6.255204
0.010000,2.265881,8.619370,1.963042,2.813432,2.086726,0.195741,6.255161
0.010000,2.294213,8.618575,1.991385,2.834320,2.088747,0.202081,6.255128
0.010000,2.322754,8.617774,2.019938,2.855226,2.090653,0.190575,6.255106
0.010000,2.351505,8.616966,2.048699,2.876153,2.092673,0.201981,6.255093
0.010000,2.380464,8.616152,2.077670,2.897100,2.094676,0.200349,6.255091
0.010000,2.409633,8.615332,2.106851,2.918067,2.096701,0.202452,6.255100
0.010000,2.439012,8.614507,2.136241,2.939054,2.098709,0.200813,6.255120
0.010000,2.468601,8.613677,2.165842,2.960062,2.100818,0.210894,6.255151
0.010000,2.498400,8.612842,2.195653,2.981090,2.102815,0.199717,6.255194
0.010000,2.528410,8.612003,2.225674,3.002140,2.104974,0.215944,6.255248
0.010000,2.558630,8.611159,2.255906,3.023210,2.106995,0.202069,6.255314
0.010000,2.589062,8.610312,2.286349,3.044302,2.109210,0.221535,6.255393
0.010000,2.619704,8.609462,2.317004,3.065414,2.111206,0.199572,6.255483
0.010000,2.650558,8.608608,2.347869,3.086550,2.113563,0.235752,6.255587
0.010000,2.681623,8.607752,2.378946,3.107704,2.115432,0.186875,6.255703
0.010000,2.712900,8.606895,2.410235,3.128884,2.118019,0.258694,6.255832
0.010000,2.744389,8.606035,2.441736,3.150083,2.119853,0.183402,6.255975
0.010000,2.776090,8.605175,2.473449,3.171305,2.122225,0.237147,6.256131
0.010000,2.808004,8.604314,2.505374,3.192551,2.124574,0.234971,6.256301
0.010000,2.840131,8.603453,2.537513,3.213816,2.126537,0.196221,6.256485
0.010000,2.872471,8.602592,2.569864,3.235107,2.129099,0.256256,6.256683
0.010000,2.905023,8.601733,2.602428,3.256421,2.131353,0.225428,6.256896
0.010000,2.937790,8.600875,2.635205,3.277755,2.133434,0.208042,6.257123
0.010000,2.970770,8.600019,2.668196,3.299114,2.135879,0.244540,6.257366
0.010000,3.003964,8.599166,2.701401,3.320499,2.138545,0.266541,6.257624
0.010000,3.037372,8.598317,2.734821,3.341904,2.140511,0.196677,6.257898
0.010000,3.070995,8.597471,2.768454,3.363333,2.142903,0.239208,6.258187
0.010000,3.104832,8.596630,2.802302,3.384787,2.145319,0.241503,6.258492
0.010000,3.138885,8.595794,2.836364,3.406269,2.148230,0.291110,6.258814
0.010000,3.173152,8.594965,2.870642,3.427771,2.150226,0.199590,6.259153
0.010000,3.207636,8.594142,2.905135,3.449298,2.152692,0.246652,6.259508
0.010000,3.242334,8.593327,2.939844,3.470850,2.155190,0.249786,6.259881
0.010000,3.277249,8.592520,2.974768,3.492427,2.157709,0.251939,6.260271
0.010000,3.312381,8.591722,3.009908,3.514030,2.160250,0.254063,6.260679
0.010000,3.347728,8.590934,3.045265,3.535658,2.162812,0.256158,6.261104
0.010000,3.383293,8.590156,3.080838,3.557314,2.165601,0.278906,6.261548
0.010000,3.419075,8.589390,3.116628,3.578994,2.167991,0.239041,6.262011
0.010000,3.455074,8.588636,3.152635,3.600699,2.170573,0.258190,6.262492
0.010000,3.491291,8.587896,3.188859,3.622431,2.173210,0.263693,6.262993
0.010000,3.527725,8.587169,3.225301,3.644190,2.175866,0.265656,6.263513
0.010000,3.564378,8.586458,3.261961,3.665975,2.178542,0.267594,6.264053
0.010000,3.601249,8.585763,3.298839,3.687788,2.181237,0.269506,6.264613
0.010000,3.638340,8.585084,3.335935,3.709627,2.183951,0.271394,6.265193
0.010000,3.675649,8.584424,3.373250,3.731494,2.186684,0.273258,6.265793
0.010000,3.713177,8.583783,3.410784,3.753390,2.189542,0.285817,6.266415
0.010000,3.750925,8.583162,3.448537,3.775315,2.192507,0.296461,6.267058
0.010000,3.788893,8.582562,3.486510,3.797266,2.195085,0.257799,6.267722
0.010000,3.827081,8.581985,3.524702,3.819244,2.197894,0.280962,6.268408
0.010000,3.865490,8.581431,3.563115,3.841252,2.200721,0.282709,6.269117
0.010000,3.904119,8.580901,3.601747,3.863287,2.203566,0.284438,6.269847
0.010000,3.942969,8.580398,3.640601,3.885352,2.206427,0.286151,6.270601
0.010000,3.982041,8.579921,3.679675,3.907447,2.209523,0.309554,6.271378
0.010000,4.021334,8.579473,3.718971,3.929577,2.213057,0.353388,6.272178
0.010000,4.060849,8.579054,3.758488,3.951730,2.215238,0.218133,6.273002
0.010000,4.100586,8.578666,3.798228,3.973912,2.218170,0.293234,6.273850
0.010000,4.140546,8.578310,3.838189,3.996123,2.221126,0.295613,6.274722
0.010000,4.180728,8.577988,3.878373,4.018379,2.225593,0.446640,6.275619
0.010000,4.221134,8.577701,3.918779,4.040651,2.227205,0.161245,6.276541
0.010000,4.261763,8.577450,3.959409,4.062953,2.230206,0.300049,6.277489
0.010000,4.302615,8.577237,4.000262,4.085298,2.234534,0.432842,6.278462
0.010000,4.343691,8.577064,4.041338,4.107668,2.236966,0.243188,6.279462
0.010000,4.384992,8.576931,4.082639,4.130062,2.239455,0.248937,6.280488
0.010000,4.426517,8.576841,4.124164,4.152507,2.244503,0.504716,6.281541
0.010000,4.468266,8.576795,4.165914,4.174968,2.246047,0.154392,6.282621
0.010000,4.510241,8.576794,4.207888,4.197466,2.249821,0.377414,0.000543
0.010000,4.552441,8.576841,4.250088,4.220003,2.253705,0.388412,0.001678
0.010000,4.594866,8.576937,4.292514,4.242559,2.255582,0.187671,0.002842
0.010000,4.637518,8.577083,4.335166,4.265170,2.261075,0.549376,0.004034
0.010000,4.680395,8.577282,4.378044,4.287788,2.261819,0.074357,0.005255
0.010000,4.723499,8.577536,4.421148,4.310469,2.268119,0.630020,0.006505
0.010000,4.766830,8.577845,4.464480,4.333155,2.268562,0.044324,0.007786
0.010000,4.810387,8.578213,4.508039,4.355903,2.274802,0.623948,0.009096
0.010000,4.854172,8.578641,4.551825,4.378661,2.275837,0.103520,0.010437
0.010000,4.898184,8.579130,4.595840,4.401472,2.281094,0.525713,0.011808
0.010000,4.942423,8.579683,4.640083,4.424309,2.283663,0.256918,0.013211
0.010000,4.986891,8.580303,4.684555,4.447178,2.286972,0.330881,0.014646
0.010000,5.031587,8.580990,4.729256,4.470099,2.292056,0.508436,0.016112
0.010000,5.076511,8.581747,4.774186,4.493036,2.293709,0.165245,0.017611
0.010000,5.121663,8.582577,4.819347,4.516020,2.298444,0.473475,0.019143
0.010000,5.167045,8.583481,4.864737,4.539044,2.302372,0.392858,0.020708
0.010000,5.212655,8.584462,4.910358,4.562093,2.304842,0.246964,0.022306
0.010000,5.258494,8.585522,4.956210,4.585183,2.309004,0.416232,0.023938
0.010000,5.304564,8.586664,5.002293,4.608322,2.313907,0.490265,0.025605
0.010000,5.350862,8.587889,5.048608,4.631483,2.316132,0.222538,0.027307
0.010000,5.397391,8.589200,5.095155,4.654683,2.319965,0.383256,0.029044
0.010000,5.444149,8.590600,5.141934,4.677922,2.323946,0.398143,0.030816
0.010000,5.491137,8.592091,5.188946,4.701211,2.328924,0.497759,0.032625
0.010000,5.538356,8.593675,5.236191,4.724526,2.331431,0.250669,0.034470
0.010000,5.585805,8.595356,5.283670,4.747879,2.335317,0.388671,0.036352
0.010000,5.633484,8.597136,5.331383,4.771271,2.339215,0.389809,0.038271
0.010000,5.681395,8.599017,5.379330,4.794702,2.343123,0.390811,0.040228
0.010000,5.729535,8.601003,5.427511,4.818173,2.347040,0.391676,0.042223
0.010000,5.777907,8.603096,5.475928,4.841684,2.351168,0.412808,0.044257
0.010000,5.826509,8.605298,5.524581,4.865236,2.355196,0.402805,0.046329
0.010000,5.875343,8.607614,5.573469,4.888823,2.358702,0.350541,0.048442
0.010000,5.924407,8.610045,5.622593,4.912450,2.362640,0.393859,0.050593
0.010000,5.973702,8.612596,5.671955,4.936116,2.366581,0.394090,0.052786
0.010000,6.023229,8.615268,5.721553,4.959821,2.370523,0.394181,0.055018
0.010000,6.072986,8.618064,5.771388,4.983565,2.374464,0.394132,0.057292
0.010000,6.122974,8.620990,5.821462,5.007349,2.378404,0.393943,0.059608
0.010000,6.173192,8.624046,5.871774,5.031173,2.382340,0.393615,0.061966
0.010000,6.223642,8.627237,5.922324,5.055036,2.386271,0.393147,0.064366
0.010000,6.274322,8.630565,5.973113,5.078939,2.390356,0.408458,0.066808
0.010000,6.325233,8.634035,6.024142,5.102885,2.394584,0.422801,0.069295
0.010000,6.376374,8.637649,6.075411,5.126866,2.398108,0.352388,0.071824
0.010000,6.427745,8.641412,6.126920,5.150886,2.401998,0.389038,0.074398
0.010000,6.479347,8.645326,6.178669,5.174945,2.405876,0.387792,0.077017
0.010000,6.531177,8.649395,6.230660,5.199042,2.409740,0.386406,0.079681
0.010000,6.583238,8.653623,6.282891,5.223178,2.413589,0.384881,0.082390
0.010000,6.635527,8.658013,6.335365,5.247358,2.418032,0.444287,0.085145
0.010000,6.688046,8.662569,6.388081,5.271576,2.421781,0.374901,0.087946
0.010000,6.740793,8.667296,6.441039,5.295827,2.425044,0.326305,0.090794
0.010000,6.793768,8.672196,6.494240,5.320115,2.428804,0.375960,0.093688
0.010000,6.846971,8.677274,6.547685,5.344446,2.433113,0.430931,0.096631
0.010000,6.900400,8.682533,6.601373,5.368816,2.436973,0.385998,0.099621
0.010000,6.954057,8.687979,6.655305,5.393214,2.439895,0.292230,0.102660
0.010000,7.007940,8.693614,6.709481,5.417652,2.443795,0.389942,0.105748
0.010000,7.062048,8.699443,6.763903,5.442134,2.448191,0.439600,0.108884
0.010000,7.116381,8.705470,6.818569,5.466641,2.450634,0.244303,0.112070
0.010000,7.170939,8.711699,6.873481,5.491188,2.454691,0.405775,0.115306
0.010000,7.225719,8.718135,6.928639,5.515770,2.458290,0.359874,0.118592
0.010000,7.280723,8.724781,6.984043,5.540380,2.460956,0.266596,0.121929
0.010000,7.335949,8.731643,7.039693,5.565034,2.465363,0.440711,0.125317
0.010000,7.391395,8.738725,7.095590,5.589709,2.467557,0.219386,0.128756
0.010000,7.447062,8.746031,7.151734,5.614423,2.471408,0.385054,0.132247
0.010000,7.502948,8.753566,7.208126,5.639164,2.474066,0.265827,0.135790
0.010000,7.559052,8.761334,7.264765,5.663937,2.477339,0.327328,0.139386
0.010000,7.615374,8.769340,7.321653,5.688738,2.480041,0.270193,0.143034
0.010000,7.671911,8.777589,7.378788,5.713568,2.482996,0.295457,0.146735
0.010000,7.728662,8.786086,7.436173,5.738424,2.485589,0.259359,0.150489
0.010000,7.785628,8.794834,7.493806,5.763306,2.488196,0.260696,0.154297
0.010000,7.842805,8.803840,7.551688,5.788213,2.490745,0.254916,0.158158
0.010000,7.900193,8.813108,7.609819,5.813142,2.492921,0.217594,0.162074
0.010000,7.957790,8.822643,7.668200,5.838095,2.495265,0.234366,0.166044
0.010000,8.015594,8.832450,7.726831,5.863070,2.497549,0.228416,0.170069
0.010000,8.073605,8.842533,7.785711,5.888059,2.498810,0.126055,0.174148
0.010000,8.131820,8.852899,7.844842,5.913072,2.501308,0.249839,0.178283
0.010000,8.190238,8.863552,7.904223,5.938102,2.503015,0.170695,0.182472
0.010000,8.248856,8.874497,7.963854,5.963136,2.503415,0.040009,0.186717
0.010000,8.307673,8.885739,8.023736,5.988193,2.505748,0.233284,0.191017
0.010000,8.366687,8.897284,8.083869,6.013263,2.506945,0.119674,0.195373
0.010000,8.425896,8.909137,8.144252,6.038336,2.507350,0.040570,0.199785
0.010000,8.485297,8.921303,8.204887,6.063414,2.507735,0.038496,0.204252
0.010000,8.544888,8.933787,8.265772,6.088505,2.509106,0.137047,0.208775
0.010000,8.604668,8.946595,8.326908,6.113599,2.509470,0.036458,0.213354
0.010000,8.664633,8.959732,8.388295,6.138695,2.509607,0.013677,0.217989
0.010000,8.724780,8.973203,8.449932,6.163781,2.508566,-0.104146,0.222680
0.010000,8.785108,8.987014,8.511821,6.188866,2.508528,-0.003739,0.227426
0.010000,8.845614,9.001170,8.573961,6.213952,2.508518,-0.000991,0.232228
0.010000,8.906294,9.015676,8.636351,6.239029,2.507705,-0.081302,0.237086
0.010000,8.967147,9.030538,8.698992,6.264095,2.506635,-0.107003,0.242000
0.010000,9.028168,9.045761,8.761883,6.289148,2.505303,-0.133259,0.246969
0.010000,9.089355,9.061350,8.825025,6.314185,2.503702,-0.160048,0.251993
0.010000,9.150705,9.077312,8.888417,6.339203,2.501829,-0.187347,0.257072
0.010000,9.212214,9.093651,8.952059,6.364200,2.499677,-0.215133,0.262206
0.010000,9.273879,9.110372,9.015951,6.389173,2.497244,-0.243380,0.267395
0.010000,9.335696,9.127481,9.080092,6.414118,2.494523,-0.272059,0.272638
0.010000,9.397662,9.144984,9.144482,6.439032,2.491385,-0.313774,0.277934
0.010000,9.459773,9.162885,9.209122,6.463915,2.488353,-0.303255,0.283285
0.010000,9.522025,9.181190,9.274009,6.488762,2.484686,-0.366650,0.288688
0.010000,9.584414,9.199904,9.339145,6.513568,2.480591,-0.409518,0.294145
0.010000,9.646937,9.219032,9.404528,6.538333,2.476488,-0.410340,0.299653
0.010000,9.709589,9.238579,9.470159,6.563053,2.471973,-0.451505,0.305214
0.010000,9.772300,9.258530,9.535967,6.580836,1.778336,-69.363621,0.310819
0.010000,9.834898,9.278833,9.601775,6.580826,-0.001023,-177.935992,0.316455
0.010000,9.897239,9.299443,9.667435,6.565930,-1.489545,-148.852163,0.322106
0.010000,9.959283,9.320344,9.732904,6.546974,-1.895583,-40.603739,0.327768
0.010000,10.021027,9.341534,9.798183,6.527907,-1.906702,-1.111973,0.333440
0.010000,10.082469,9.363011,9.863271,6.508730,-1.917762,-1.105995,0.339121
0.010000,10.143606,9.384773,9.928165,6.489442,-1.928745,-1.098260,0.344810
0.010000,10.204435,9.406816,9.992866,6.470046,-1.939632,-1.088717,0.350505
0.010000,10.264955,9.429138,10.057371,6.450542,-1.950405,-1.077320,0.356205
0.010000,10.325163,9.451735,10.121680,6.430900,-1.964191,-1.378606,0.361909
0.010000,10.385057,9.474606,10.185792,6.411166,-1.973380,-0.918929,0.367616
0.010000,10.444634,9.497746,10.249705,6.391336,-1.982995,-0.961450,0.373324
0.010000,10.503893,9.521152,10.313419,6.371404,-1.993212,-1.021747,0.379033
0.010000,10.562832,9.544822,10.376933,6.351372,-2.003220,-1.000754,0.384741
0.010000,10.621448,9.568751,10.440245,6.331230,-2.014196,-1.097604,0.390447
0.010000,10.679738,9.592937,10.503354,6.310913,-2.031685,-1.748877,0.396150
0.010000,10.737703,9.617376,10.566260,6.290579,-2.033393,-0.170796,0.401849
0.010000,10.795340,9.642064,10.628962,6.270155,-2.042458,-0.906537,0.407543
0.010000,10.852646,9.666997,10.691457,6.249557,-2.059717,-1.725923,0.413231
0.010000,10.909621,9.692172,10.753746,6.228886,-2.067191,-0.747336,0.418911
0.010000,10.966263,9.717586,10.815828,6.208188,-2.069726,-0.253490,0.424582
0.010000,11.022569,9.743233,10.877701,6.187265,-2.092381,-2.265490,0.430245
0.010000,11.078540,9.769111,10.939364,6.166353,-2.091121,0.125994,0.435896
0.010000,11.134174,9.795215,11.000817,6.145323,-2.103048,-1.192706,0.441536
0.010000,11.189468,9.821541,11.062059,6.124157,-2.116560,-1.351211,0.447163
0.010000,11.244423,9.848085,11.123089,6.102989,-2.116779,-0.021899,0.452777
0.010000,11.299037,9.874843,11.183905,6.081623,-2.136686,-1.990726,0.458377
0.010000,11.353308,9.901811,11.244508,6.060281,-2.134179,0.250724,0.463960
0.010000,11.407237,9.928984,11.304896,6.038775,-2.150618,-1.643880,0.469528
0.010000,11.460822,9.956359,11.365068,6.017216,-2.155883,-0.526515,0.475078
0.010000,11.514062,9.983931,11.425024,5.995641,-2.157445,-0.156232,0.480611
0.010000,11.566956,10.011695,11.484762,5.973816,-2.182554,-2.510897,0.486124
0.010000,11.619505,10.039648,11.544283,5.952100,-2.171533,1.102144,0.491617
0.010000,11.671708,10.067784,11.603586,5.930258,-2.184288,-1.275551,0.497090
0.010000,11.723563,10.096100,11.662668,5.908230,-2.202747,-1.845876,0.502542
0.010000,11.775071,10.124592,11.721531,5.886276,-2.195409,0.733790,0.507971
0.010000,11.826231,10.153254,11.780173,5.864245,-2.203145,-0.773622,0.513378
0.010000,11.877044,10.182083,11.838594,5.842080,-2.216497,-1.335177,0.518761
0.010000,11.927507,10.211073,11.896792,5.819823,-2.225619,-0.912206,0.524120
0.010000,11.977623,10.240221,11.954768,5.797587,-2.223656,0.196323,0.529454
0.010000,12.027391,10.269522,12.012521,5.775284,-2.230292,-0.663625,0.534762
0.010000,12.076811,10.298972,12.070050,5.752917,-2.236647,-0.635449,0.540044
0.010000,12.125883,10.328566,12.127355,5.730490,-2.242708,-0.606168,0.545299
0.010000,12.174607,10.358299,12.184435,5.708006,-2.248466,-0.575799,0.550527
0.010000,12.222984,10.388168,12.241290,5.685467,-2.253910,-0.544363,0.555727
0.010000,12.271014,10.418167,12.297919,5.662876,-2.259029,-0.511881,0.560899
0.010000,12.318697,10.448293,12.354321,5.640238,-2.263812,-0.478378,0.566041
0.010000,12.366034,10.478541,12.410497,5.617556,-2.268251,-0.443878,0.571154
0.010000,12.413025,10.508906,12.466445,5.594832,-2.272335,-0.408409,0.576238
0.010000,12.459671,10.539385,12.522166,5.572072,-2.276055,-0.372001,0.581291
0.010000,12.505972,10.569973,12.577658,5.549278,-2.279402,-0.334683,0.586313
0.010000,12.540707,10.593054,12.619363,4.170436,-137.884200,-13560.479747,0.583946
0.010000,12.577068,10.616882,12.662836,4.347338,17.690231,15557.443090,0.576269
0.010000,12.613457,10.640332,12.706126,4.328996,-1.834208,-1952.443939,0.568609
0.010000,12.649871,10.663405,12.749235,4.310869,-1.812668,2.153986,0.560971
0.010000,12.686308,10.686106,12.792164,4.292962,-1.790705,2.196304,0.553354
0.010000,12.722765,10.708435,12.834916,4.275195,-1.776696,1.400888,0.545762
0.010000,12.759240,10.730398,12.877493,4.257687,-1.750817,2.587942,0.538197
0.010000,12.795730,10.751996,12.919896,4.240319,-1.736846,1.397099,0.530660
0.010000,12.832234,10.773233,12.962128,4.223130,-1.718853,1.799251,0.523154
0.010000,12.868748,10.794111,13.004190,4.206184,-1.694623,2.423007,0.515681
0.010000,12.905270,10.814634,13.046083,4.189356,-1.682840,1.178295,0.508243
0.010000,12.941798,10.834805,13.087810,4.172709,-1.664631,1.820942,0.500841
0.010000,12.978329,10.854628,13.129373,4.156286,-1.642340,2.229109,0.493478
0.010000,13.014861,10.874105,13.170773,4.139979,-1.630714,1.162591,0.486155
0.010000,13.051391,10.893240,13.212011,4.123839,-1.614018,1.669635,0.478874
0.010000,13.087918,10.912036,13.253090,4.107882,-1.595654,1.836356,0.471637
0.010000,13.124438,10.930497,13.294011,4.092075,-1.580647,1.500693,0.464446
0.010000,13.160948,10.948626,13.334775,4.076402,-1.567327,1.331983,0.457301
0.010000,13.197448,10.966426,13.375384,4.060876,-1.552607,1.472036,0.450206
0.010000,13.233934,10.983902,13.415839,4.045493,-1.538324,1.428280,0.443161
0.010000,13.270403,11.001056,13.456141,4.030266,-1.522642,1.568241,0.436167
0.010000,13.306854,11.017892,13.496293,4.015146,-1.512088,1.055344,0.429227
0.010000,13.343285,11.034414,13.536294,4.000150,-1.499537,1.255094,0.422341
0.010000,13.379691,11.050625,13.576147,3.985275,-1.487552,1.198531,0.415511
0.010000,13.416072,11.066529,13.615852,3.970513,-1.476136,1.141597,0.408738
0.010000,13.452424,11.082130,13.655411,3.955860,-1.465292,1.084453,0.402023
0.010000,13.488746,11.097431,13.694824,3.941310,-1.455019,1.027256,0.395368
0.010000,13.525035,11.112435,13.734092,3.926857,-1.445317,0.970157,0.388773
0.010000,13.561289,11.127147,13.773217,3.912495,-1.436184,0.913302,0.382240
0.010000,13.597505,11.141570,13.812199,3.898219,-1.427616,0.856826,0.375768
0.010000,13.633680,11.155708,13.851040,3.884023,-1.419607,0.800861,0.369360
0.010000,13.669814,11.169565,13.889739,3.869901,-1.412152,0.745527,0.363016
0.010000,13.705902,11.183143,13.928297,3.855849,-1.405243,0.690939,0.356737
0.010000,13.741943,11.196448,13.966716,3.841860,-1.398871,0.637203,0.350524
0.010000,13.777935,11.209482,14.004995,3.827930,-1.393027,0.584416,0.344376
0.010000,13.813876,11.222249,14.043136,3.814053,-1.387700,0.532666,0.338295
0.010000,13.849762,11.234753,14.081138,3.800224,-1.382880,0.482034,0.332282
0.010000,13.885592,11.246998,14.119002,3.786449,-1.377508,0.537205,0.326336
0.010000,13.921363,11.258987,14.156729,3.772705,-1.374460,0.304746,0.320458
0.010000,13.957073,11.270724,14.194319,3.758991,-1.371353,0.310760,0.314649
0.010000,13.992721,11.282213,14.231772,3.745307,-1.368452,0.290019,0.308909
0.010000,14.028303,11.293457,14.269089,3.731660,-1.364607,0.384559,0.303238
0.010000,14.063818,11.304460,14.306269,3.718021,-1.363907,0.069979,0.297636
0.010000,14.099263,11.315225,14.343313,3.704398,-1.362362,0.154519,0.292104
0.010000,14.134637,11.325757,14.380221,3.690800,-1.359764,0.259772,0.286642
0.010000,14.169936,11.336058,14.416993,3.677195,-1.360545,-0.078061,0.281249
0.010000,14.205160,11.346133,14.453629,3.663604,-1.359059,0.148557,0.275926
0.010000,14.240305,11.355984,14.490129,3.650007,-1.359670,-0.061045,0.270673
0.010000,14.275371,11.365616,14.526493,3.636412,-1.359537,0.013224,0.265489
0.010000,14.310354,11.375032,14.562721,3.622806,-1.360647,-0.111001,0.260376
0.010000,14.345252,11.384236,14.598813,3.609195,-1.361095,-0.044774,0.255331
0.010000,14.380065,11.393230,14.634769,3.595564,-1.363112,-0.201699,0.250357
0.010000,14.414789,11.402019,14.670588,3.581923,-1.364035,-0.092313,0.245451
0.010000,14.449423,11.410606,14.706271,3.568259,-1.366445,-0.241026,0.240615
0.010000,14.483965,11.418994,14.741817,3.554572,-1.368670,-0.222497,0.235847
0.010000,14.518413,11.427187,14.777225,3.540864,-1.370832,-0.216138,0.231148
0.010000,14.552765,11.435188,14.812496,3.527126,-1.373778,-0.294595,0.226517
0.010000,14.587019,11.443000,14.847630,3.513358,-1.376799,-0.302135,0.221955
0.010000,14.621173,11.450627,14.882626,3.499558,-1.379973,-0.317371,0.217459
0.010000,14.655226,11.458072,14.917483,3.485724,-1.383382,-0.340927,0.213031
0.010000,14.689176,11.465338,14.952201,3.471854,-1.386994,-0.361180,0.208670
0.010000,14.723020,11.472429,14.986781,3.457946,-1.390875,-0.388079,0.204375
0.010000,14.756758,11.479347,15.021221,3.443997,-1.394895,-0.402011,0.200146
0.010000,14.790388,11.486096,15.055521,3.430006,-1.399080,-0.418554,0.195982
0.010000,14.823907,11.492679,15.089681,3.415972,-1.403430,-0.434962,0.191883
0.010000,14.857315,11.499099,15.123700,3.401892,-1.407931,-0.450074,0.187849
0.010000,14.890609,11.505360,15.157577,3.387767,-1.412570,-0.463940,0.183879
0.010000,14.923788,11.511463,15.191313,3.373593,-1.417336,-0.476614,0.179972
0.010000,14.956851,11.517413,15.224907,3.359370,-1.422360,-0.502374,0.176129
0.010000,14.989795,11.523212,15.258358,3.345097,-1.427279,-0.491930,0.172347
0.010000,15.022620,11.528863,15.291666,3.330773,-1.432369,-0.508988,0.168628
0.010000,15.055324,11.534369,15.324829,3.316398,-1.437543,-0.517420,0.164969
0.010000,15.087905,11.539732,15.357849,3.301970,-1.442820,-0.527659,0.161372
0.010000,15.120362,11.544957,15.390724,3.287484,-1.448571,-0.575096,0.157834
0.010000,15.152694,11.550045,15.423453,3.272948,-1.453600,-0.502948,0.154356
0.010000,15.184898,11.554999,15.456037,3.258357,-1.459061,-0.546089,0.150937
0.010000,15.216975,11.559823,15.488474,3.243705,-1.465236,-0.617461,0.147576
0.010000,15.248922,11.564518,15.520764,3.229003,-1.470143,-0.490717,0.144273
0.010000,15.280738,11.569087,15.552907,3.214240,-1.476338,-0.619525,0.141027
0.010000,15.312421,11.573534,15.584901,3.199423,-1.481700,-0.536139,0.137837
0.010000,15.343972,11.577860,15.616746,3.184546,-1.487735,-0.603571,0.134703
0.010000,15.375387,11.582068,15.648442,3.169614,-1.493142,-0.540612,0.131625
0.010000,15.406667,11.586161,15.679989,3.154619,-1.499510,-0.636805,0.128600
0.010000,15.437809,11.590141,15.711384,3.139573,-1.504613,-0.510378,0.125630
0.010000,15.468813,11.594011,15.742629,3.124462,-1.511077,-0.646359,0.122713
0.010000,15.499678,11.597772,15.773722,3.109296,-1.516663,-0.558562,0.119849
0.010000,15.530402,11.601428,15.804663,3.094073,-1.522268,-0.560542,0.117036
0.010000,15.560984,11.604981,15.835451,3.078790,-1.528302,-0.603384,0.114275
0.010000,15.591423,11.608433,15.866085,3.063445,-1.534528,-0.622661,0.111565
0.010000,15.621719,11.611786,15.896565,3.048046,-1.539884,-0.535590,0.108904
0.010000,15.651869,11.615043,15.926891,3.032588,-1.545752,-0.586743,0.106293
0.010000,15.681874,11.618205,15.957062,3.017072,-1.551601,-0.584889,0.103731
0.010000,15.711731,11.621275,15.987077,3.001498,-1.557427,-0.582629,0.101217
0.010000,15.741441,11.624256,16.016936,2.985866,-1.563227,-0.579996,0.098751
0.010000,15.771001,11.627148,16.046637,2.970176,-1.568997,-0.577020,0.096331
0.010000,15.800412,11.629955,16.076182,2.954428,-1.574734,-0.573734,0.093958
0.010000,15.829672,11.632678,16.105568,2.938624,-1.580436,-0.570165,0.091630
0.010000,15.858780,11.635319,16.134796,2.922763,-1.586100,-0.566342,0.089348
0.010000,15.887735,11.637880,16.163864,2.906846,-1.591722,-0.562292,0.087109
0.010000,15.916537,11.640363,16.192773,2.890873,-1.597303,-0.558040,0.084915
0.010000,15.945185,11.642771,16.221521,2.874844,-1.602839,-0.553611,0.082764
0.010000,15.973677,11.645104,16.250109,2.858761,-1.608329,-0.549029,0.080655
0.010000,16.002013,11.647365,16.278535,2.842616,-1.614547,-0.621749,0.078589
0.010000,16.030192,11.649555,16.306799,2.826423,-1.619309,-0.476212,0.076563
0.010000,16.058214,11.651677,16.334901,2.810176,-1.624625,-0.531622,0.074579
0.010000,16.086077,11.653731,16.362840,2.793871,-1.630497,-0.587199,0.072635
0.010000,16.113781,11.655721,16.390615,2.777513,-1.635828,-0.533120,0.070730
0.010000,16.141325,11.657646,16.418226,2.761108,-1.640467,-0.463852,0.068864
0.010000,16.168708,11.659510,16.445672,2.744639,-1.646943,-0.647574,0.067037
0.010000,16.195929,11.661313,16.472954,2.728130,-1.650922,-0.397905,0.065248
0.010000,16.222989,11.663057,16.500069,2.711559,-1.657111,-0.618951,0.063496
0.010000,16.249885,11.664744,16.527019,2.694946,-1.661313,-0.420174,0.061781
0.010000,16.276618,11.666375,16.553801,2.678271,-1.667486,-0.617276,0.060102
0.010000,16.303187,11.667952,16.580417,2.661557,-1.671397,-0.391119,0.058458
0.010000,16.329591,11.669476,16.606865,2.644783,-1.677384,-0.598744,0.056850
0.010000,16.355829,11.670948,16.633144,2.627965,-1.681834,-0.444933,0.055276
0.010000,16.381902,11.672371,16.659255,2.611099,-1.686515,-0.468102,0.053737
0.010000,16.407807,11.673744,16.685197,2.594179,-1.691991,-0.547616,0.052230
0.010000,16.433545,11.675071,16.710969,2.577213,-1.696625,-0.463429,0.050757
0.010000,16.459115,11.676351,16.736571,2.560202,-1.701117,-0.449228,0.049316
0.010000,16.484516,11.677587,16.762003,2.543143,-1.705906,-0.478883,0.047908
0.010000,16.509749,11.678779,16.787263,2.526037,-1.710637,-0.473093,0.046530
0.010000,16.534811,11.679929,16.812352,2.508883,-1.715345,-0.470845,0.045184
0.010000,16.559703,11.681038,16.837269,2.491682,-1.720125,-0.477914,0.043867
0.010000,16.584424,11.682108,16.862013,2.474438,-1.724380,-0.425518,0.042581
0.010000,16.608974,11.683138,16.886585,2.457149,-1.728882,-0.450224,0.041324
0.010000,16.633352,11.684131,16.910983,2.439816,-1.733328,-0.444558,0.040096
0.010000,16.657558,11.685088,16.935207,2.422439,-1.737717,-0.438938,0.038897
0.010000,16.681590,11.686009,16.959257,2.405018,-1.742119,-0.440211,0.037725
0.010000,16.705449,11.686896,16.983133,2.387552,-1.746616,-0.449660,0.036582
0.010000,16.729134,11.687749,17.006833,2.370045,-1.750643,-0.402735,0.035465
0.010000,16.752645,11.688570,17.030358,2.352497,-1.754810,-0.416735,0.034374
0.010000,16.775981,11.689360,17.053707,2.334908,-1.758925,-0.411415,0.033310
0.010000,16.799141,11.690120,17.076880,2.317278,-1.762986,-0.406174,0.032272
0.010000,16.822125,11.690850,17.099876,2.299602,-1.767588,-0.460144,0.031258
0.010000,16.844934,11.691552,17.122695,2.281890,-1.771243,-0.365496,0.030270
0.010000,16.867565,11.692227,17.145336,2.264140,-1.774936,-0.369361,0.029306
0.010000,16.890019,11.692874,17.167800,2.246346,-1.779422,-0.448605,0.028365
0.010000,16.912295,11.693496,17.190085,2.228515,-1.783087,-0.366508,0.027449
0.010000,16.934394,11.694093,17.212192,2.210649,-1.786594,-0.350642,0.026555
0.010000,16.956314,11.694665,17.234119,2.192737,-1.791233,-0.463945,0.025684
0.010000,16.978055,11.695215,17.255867,2.174798,-1.793925,-0.269191,0.024836
0.010000,16.999617,11.695741,17.277435,2.156810,-1.798809,-0.488404,0.024009
0.010000,17.020999,11.696246,17.298823,2.138796,-1.801400,-0.259100,0.023203
0.010000,17.042200,11.696730,17.320030,2.120737,-1.805845,-0.444435,0.022419
0.010000,17.063222,11.697193,17.341057,2.102647,-1.809001,-0.315657,0.021655
0.010000,17.084062,11.697637,17.361902,2.084523,-1.812371,-0.336995,0.020912
0.010000,17.104721,11.698061,17.382566,2.066356,-1.816709,-0.433741,0.020188
0.010000,17.125199,11.698468,17.403047,2.048162,-1.819402,-0.269322,0.019484
0.010000,17.145495,11.698856,17.423347,2.029933,-1.822902,-0.350024,0.018799
0.010000,17.165608,11.699227,17.443463,2.011668,-1.826523,-0.362060,0.018133
0.010000,17.185538,11.699582,17.463397,1.993368,-1.830020,-0.349778,0.017485
0.010000,17.205286,11.699922,17.483147,1.975038,-1.833014,-0.299390,0.016856
0.010000,17.224850,11.700245,17.502714,1.956674,-1.836318,-0.330348,0.016244
0.010000,17.244230,11.700554,17.522097,1.938279,-1.839573,-0.325548,0.015649
0.010000,17.263427,11.700849,17.541295,1.919851,-1.842781,-0.320824,0.015071
0.010000,17.282438,11.701130,17.560309,1.901391,-1.845943,-0.316176,0.014510
0.010000,17.301265,11.701398,17.579138,1.882901,-1.849059,-0.311606,0.013965
0.010000,17.319908,11.701654,17.597782,1.864380,-1.852130,-0.307113,0.013436
0.010000,17.338364,11.701897,17.616240,1.845828,-1.855157,-0.302700,0.012923
0.010000,17.356635,11.702129,17.634513,1.827247,-1.858141,-0.298367,0.012425
0.010000,17.374720,11.702349,17.652599,1.808636,-1.861082,-0.294114,0.011942
0.010000,17.392619,11.702559,17.670499,1.789996,-1.863982,-0.289941,0.011474
0.010000,17.410331,11.702758,17.688212,1.771328,-1.866840,-0.285849,0.011020
0.010000,17.427856,11.702947,17.705739,1.752628,-1.869976,-0.313613,0.010580
0.010000,17.445194,11.703127,17.723078,1.733902,-1.872589,-0.261279,0.010154
0.010000,17.462345,11.703297,17.740229,1.715150,-1.875217,-0.262808,0.009741
0.010000,17.479308,11.703459,17.757193,1.696370,-1.877939,-0.272209,0.009341
0.010000,17.496083,11.703613,17.773968,1.677559,-1.881173,-0.323336,0.008954
0.010000,17.512670,11.703758,17.790556,1.658726,-1.883233,-0.205997,0.008580
0.010000,17.529068,11.703896,17.806954,1.639866,-1.886063,-0.283014,0.008218
0.010000,17.545277,11.704026,17.823164,1.620977,-1.888863,-0.279995,0.007868
0.010000,17.561297,11.704149,17.839185,1.602067,-1.890988,-0.212539,0.007529
0.010000,17.577128,11.704266,17.855016,1.583126,-1.894117,-0.312923,0.007202
0.010000,17.592769,11.704376,17.870658,1.564166,-1.895976,-0.185912,0.006886
0.010000,17.608221,11.704480,17.886110,1.545176,-1.899003,-0.302641,0.006581
0.010000,17.623482,11.704578,17.901371,1.526166,-1.901009,-0.200602,0.006287
0.010000,17.638553,11.704671,17.916442,1.507131,-1.903549,-0.254041,0.006003
0.010000,17.653433,11.704758,17.931323,1.488070,-1.906066,-0.251648,0.005728
0.010000,17.668123,11.704841,17.946013,1.468989,-1.908084,-0.201866,0.005464
0.010000,17.682622,11.704918,17.960512,1.449884,-1.910532,-0.244783,0.005210
0.010000,17.696929,11.704991,17.974819,1.430754,-1.912968,-0.243569,0.004964
0.010000,17.711045,11.705059,17.988936,1.411605,-1.914935,-0.196716,0.004728
0.010000,17.724969,11.705123,18.002860,1.392433,-1.917160,-0.222512,0.004500
0.010000,17.738701,11.705184,18.016592,1.373240,-1.919346,-0.218632,0.004282
0.010000,17.752241,11.705240,18.030132,1.354025,-1.921516,-0.216988,0.004071
0.010000,17.765589,11.705293,18.043480,1.334788,-1.923700,-0.218372,0.003869
0.010000,17.778744,11.705343,18.056636,1.315531,-1.925636,-0.193546,0.003675
0.010000,17.791707,11.705389,18.069598,1.296254,-1.927675,-0.203920,0.003488
0.010000,17.804476,11.705433,18.082368,1.276958,-1.929678,-0.200314,0.003309
0.010000,17.817053,11.705473,18.094944,1.257641,-1.931645,-0.196761,0.003137
0.010000,17.829436,11.705511,18.107327,1.238305,-1.933578,-0.193259,0.002972
0.010000,17.841625,11.705546,18.119517,1.218951,-1.935476,-0.189808,0.002814
0.010000,17.853621,11.705579,18.131513,1.199576,-1.937431,-0.195464,0.002662
0.010000,17.865423,11.705610,18.143314,1.180184,-1.939231,-0.180019,0.002517
0.010000,17.877030,11.705638,18.154922,1.160774,-1.940990,-0.175881,0.002379
0.010000,17.888444,11.705664,18.166336,1.141347,-1.942752,-0.176229,0.002246
0.010000,17.899663,11.705689,18.177555,1.121902,-1.944482,-0.173021,0.002119
0.010000,17.910687,11.705712,18.188579,1.102439,-1.946326,-0.184362,0.001998
0.010000,17.921517,11.705733,18.199409,1.082959,-1.947967,-0.164160,0.001882
0.010000,17.932151,11.705752,18.210043,1.063464,-1.949493,-0.152581,0.001772
0.010000,17.942591,11.705770,18.220483,1.043952,-1.951243,-0.174981,0.001667
0.010000,17.952835,11.705786,18.230727,1.024423,-1.952840,-0.159740,0.001566
0.010000,17.962884,11.705802,18.240776,1.004881,-1.954222,-0.138112,0.001471
0.010000,17.972737,11.705816,18.250629,0.985320,-1.956072,-0.185077,0.001380
0.010000,17.982395,11.705829,18.260286,0.965748,-1.957208,-0.113524,0.001294
0.010000,17.991856,11.705841,18.269748,0.946158,-1.959008,-0.180068,0.001211
0.010000,18.001122,11.705851,18.279014,0.926557,-1.960133,-0.112469,0.001133
0.010000,18.010191,11.705861,18.288083,0.906938,-1.961832,-0.169928,0.001059
0.010000,18.019064,11.705870,18.296956,0.887309,-1.962984,-0.115202,0.000989
0.010000,18.027741,11.705879,18.305633,0.867665,-1.964399,-0.141457,0.000923
0.010000,18.036221,11.705886,18.314113,0.848006,-1.965803,-0.140387,0.000860
0.010000,18.044504,11.705893,18.322396,0.828337,-1.966950,-0.114748,0.000800
0.010000,18.052591,11.705899,18.330483,0.808655,-1.968224,-0.127407,0.000744
0.010000,18.060480,11.705905,18.338372,0.788959,-1.969581,-0.135660,0.000690
0.010000,18.068173,11.705910,18.346065,0.769252,-1.970661,-0.107989,0.000640
0.010000,18.075668,11.705915,18.353560,0.749534,-1.971823,-0.116175,0.000593
0.010000,18.082966,11.705919,18.360858,0.729804,-1.972965,-0.114206,0.000548
0.010000,18.090067,11.705923,18.367959,0.710064,-1.974074,-0.110942,0.000506
0.010000,18.096970,11.705926,18.374862,0.690312,-1.975151,-0.107704,0.000467
0.010000,18.103676,11.705929,18.381567,0.670550,-1.976196,-0.104492,0.000430
0.010000,18.110183,11.705932,18.388075,0.650778,-1.977209,-0.101306,0.000395
0.010000,18.116493,11.705934,18.394385,0.630996,-1.978190,-0.098143,0.000363
0.010000,18.122605,11.705936,18.400497,0.611205,-1.979141,-0.095005,0.000332
0.010000,18.128519,11.705938,18.406411,0.591404,-1.980059,-0.091889,0.000304
0.010000,18.134235,11.705940,18.412127,0.571595,-1.980947,-0.088795,0.000277
0.010000,18.139753,11.705941,18.417645,0.551777,-1.981805,-0.085722,0.000252
0.010000,18.145073,11.705943,18.422964,0.531950,-1.982631,-0.082670,0.000229
0.010000,18.150194,11.705944,18.428086,0.512116,-1.983428,-0.079638,0.000207
0.010000,18.155117,11.705945,18.433008,0.492274,-1.984221,-0.079377,0.000187
0.010000,18.159841,11.705945,18.437733,0.472424,-1.984988,-0.076699,0.000169
0.010000,18.164366,11.705946,18.442258,0.452568,-1.985638,-0.064992,0.000151
0.010000,18.168693,11.705947,18.446585,0.432705,-1.986314,-0.067553,0.000135
0.010000,18.172822,11.705947,18.450714,0.412834,-1.987058,-0.074436,0.000121
0.010000,18.176751,11.705948,18.454643,0.392958,-1.987583,-0.052487,0.000107
0.010000,18.180482,11.705948,18.458374,0.373076,-1.988201,-0.061794,0.000094
0.010000,18.184014,11.705948,18.461906,0.353188,-1.988796,-0.059489,0.000083
0.010000,18.187347,11.705949,18.465239,0.333296,-1.989261,-0.046533,0.000072
0.010000,18.190481,11.705949,18.468373,0.313397,-1.989846,-0.058453,0.000063
0.010000,18.193416,11.705949,18.471308,0.293495,-1.990234,-0.038852,0.000054
0.010000,18.196152,11.705949,18.474044,0.273587,-1.990739,-0.050492,0.000046
0.010000,18.198689,11.705949,18.476580,0.253676,-1.991115,-0.037625,0.000039
0.010000,18.201026,11.705949,18.478918,0.233761,-1.991483,-0.036722,0.000032
0.010000,18.203165,11.705950,18.481056,0.213842,-1.991900,-0.041726,0.000027
0.010000,18.205104,11.705950,18.482996,0.193921,-1.992154,-0.025393,0.000021
0.010000,18.206844,11.705950,18.484736,0.173996,-1.992452,-0.029807,0.000017
0.010000,18.208384,11.705950,18.486276,0.154069,-1.992760,-0.030815,0.000013
0.010000,18.209726,11.705950,18.487618,0.134139,-1.992961,-0.020059,0.000010
0.010000,18.210868,11.705950,18.488760,0.114208,-1.993155,-0.019397,0.000007
0.010000,18.211811,11.705950,18.489703,0.094274,-1.993330,-0.017512,0.000004
0.010000,18.212554,11.705950,18.490446,0.074339,-1.993474,-0.014449,0.000003
0.010000,18.213098,11.705950,18.490990,0.054404,-1.993588,-0.011390,0.000001
0.010000,18.213443,11.705950,18.491335,0.034467,-1.993671,-0.008333,0.000000
0.010000,18.213602,11.705950,18.491493,0.015882,-1.858529,13.514247,0.000000
0.010000,18.213638,11.705950,18.491530,0.003632,-1.224919,63.361026,0.000000
0.010000,18.213638,11.705950,18.491530,0.000000,-0.363242,86.167630,0.000000
