dt,x,y,position,velocity,acceleration,jerk,heading
0.020000,0.303248,10.485328,0.000400,0.040000,2.000000,100.000000,0.000314
0.020000,0.303278,10.485328,0.000430,0.001493,-1.925369,-196.268469,0.000281
0.020000,0.303328,10.485328,0.000480,0.002486,0.049657,98.751332,0.000227
0.020000,0.303397,10.485328,0.000549,0.003476,0.049513,-0.007236,0.000151
0.020000,0.303486,10.485328,0.000638,0.004462,0.049310,-0.010129,0.000054
0.020000,0.306017,10.485328,0.003169,0.126522,6.102968,302.682925,6.283120
0.020000,0.311345,10.485327,0.008497,0.266417,6.994753,44.589245,6.282980
0.020000,0.317493,10.485325,0.014645,0.307386,2.048483,-247.313494,6.282818
0.020000,0.324460,10.485322,0.021612,0.348341,2.047756,-0.036355,6.282636
0.020000,0.332246,10.485317,0.029397,0.389291,2.047469,-0.014391,6.282433
0.020000,0.340850,10.485310,0.038002,0.430231,2.047009,-0.022968,6.282209
0.020000,0.350273,10.485299,0.047425,0.471151,2.046024,-0.049272,6.281965
0.020000,0.360514,10.485285,0.057666,0.512064,2.045610,-0.020680,6.281702
0.020000,0.371574,10.485267,0.068726,0.552962,2.044893,-0.035841,6.281418
0.020000,0.383451,10.485245,0.080602,0.593843,2.044079,-0.040712,6.281116
0.020000,0.396145,10.485216,0.093297,0.634708,2.043227,-0.042593,6.280794
0.020000,0.409656,10.485182,0.106808,0.675554,2.042337,-0.044488,6.280454
0.020000,0.423983,10.485140,0.121135,0.716383,2.041410,-0.046399,6.280096
0.020000,0.439127,10.485090,0.136279,0.757190,2.040368,-0.052073,6.279721
0.020000,0.455086,10.485032,0.152239,0.797972,2.039081,-0.064361,6.279328
0.020000,0.471861,10.484964,0.169013,0.838738,2.038302,-0.038964,6.278918
0.020000,0.489450,10.484885,0.186603,0.879478,2.036997,-0.065249,6.278492
0.020000,0.507854,10.484794,0.205007,0.920190,2.035612,-0.069224,6.278051
0.020000,0.527071,10.484691,0.224224,0.960880,2.034528,-0.054205,6.277595
0.020000,0.547102,10.484575,0.244255,1.001542,2.033077,-0.072565,6.277124
0.020000,0.567945,10.484443,0.265099,1.042173,2.031537,-0.076991,6.276639
0.020000,0.589600,10.484296,0.286754,1.082779,2.030300,-0.061836,6.276141
0.020000,0.612066,10.484132,0.309221,1.123353,2.028712,-0.079384,6.275631
0.020000,0.635343,10.483950,0.332499,1.163895,2.027089,-0.081160,6.275109
0.020000,0.659431,10.483749,0.356587,1.204403,2.025430,-0.082966,6.274575
0.020000,0.684327,10.483528,0.381485,1.244878,2.023734,-0.084805,6.274031
0.020000,0.710032,10.483286,0.407191,1.285318,2.022000,-0.086681,6.273478
0.020000,0.736546,10.483021,0.433706,1.325723,2.020228,-0.088597,6.272916
0.020000,0.763866,10.482732,0.461027,1.366091,2.018417,-0.090556,6.272345
0.020000,0.791993,10.482419,0.489156,1.406422,2.016566,-0.092562,6.271768
0.020000,0.820925,10.482081,0.518090,1.446710,2.014384,-0.109104,6.271184
0.020000,0.850662,10.481715,0.547829,1.486960,2.012509,-0.093746,6.270595
0.020000,0.881203,10.481321,0.578373,1.527170,2.010495,-0.100714,6.270001
0.020000,0.912546,10.480899,0.609719,1.567334,2.008217,-0.113875,6.269403
0.020000,0.944692,10.480446,0.641868,1.607457,2.006131,-0.104291,6.268803
0.020000,0.977640,10.479962,0.674819,1.647537,2.004007,-0.106231,6.268201
0.020000,1.011387,10.479446,0.708571,1.687566,2.001463,-0.127168,6.267599
0.020000,1.045934,10.478897,0.743122,1.727552,1.999267,-0.109805,6.266997
0.020000,1.081279,10.478314,0.778471,1.767490,1.996911,-0.117839,6.266396
0.020000,1.117421,10.477696,0.814619,1.807379,1.994444,-0.123337,6.265797
0.020000,1.154360,10.477043,0.851563,1.847218,1.991939,-0.125220,6.265202
0.020000,1.192093,10.476353,0.889303,1.887005,1.989396,-0.127180,6.264612
0.020000,1.230621,10.475626,0.927838,1.926742,1.986811,-0.129224,6.264028
0.020000,1.269942,10.474861,0.967167,1.966425,1.984146,-0.133281,6.263450
0.020000,1.310055,10.474058,1.007288,2.006050,1.981289,-0.142848,6.262881
0.020000,1.350959,10.473216,1.048200,2.045625,1.978753,-0.126792,6.262320
0.020000,1.392653,10.472334,1.089903,2.085143,1.975887,-0.143303,6.261771
0.020000,1.435135,10.471413,1.132395,2.124601,1.972892,-0.149740,6.261233
0.020000,1.478404,10.470452,1.175675,2.164004,1.970153,-0.136974,6.260709
0.020000,1.522460,10.469450,1.219742,2.203345,1.967058,-0.154747,6.260198
0.020000,1.567300,10.468408,1.264595,2.242626,1.964042,-0.150778,6.259704
0.020000,1.612924,10.467325,1.310232,2.281847,1.961048,-0.149723,6.259226
0.020000,1.659331,10.466202,1.356652,2.321005,1.957878,-0.158460,6.258767
0.020000,1.706518,10.465039,1.403854,2.360098,1.954656,-0.161141,6.258328
0.020000,1.754486,10.463837,1.451836,2.399126,1.951413,-0.162136,6.257910
0.020000,1.803232,10.462595,1.500598,2.438089,1.948163,-0.162471,6.257514
0.020000,1.852755,10.461314,1.550138,2.476985,1.944793,-0.168527,6.257143
0.020000,1.903054,10.459995,1.600454,2.515812,1.941372,-0.171054,6.256797
0.020000,1.954127,10.458638,1.651545,2.554571,1.937950,-0.171112,6.256479
0.020000,2.005974,10.457246,1.703410,2.593260,1.934449,-0.175047,6.256189
0.020000,2.058592,10.455818,1.756048,2.631878,1.930867,-0.179072,6.255929
0.020000,2.111980,10.454356,1.809456,2.670421,1.927177,-0.184515,6.255702
0.020000,2.166138,10.452862,1.863634,2.708893,1.923592,-0.179251,6.255507
0.020000,2.221062,10.451337,1.918580,2.747288,1.919747,-0.192240,6.255348
0.020000,2.276753,10.449782,1.974292,2.785609,1.916023,-0.186188,6.255225
0.020000,2.333208,10.448201,2.030769,2.823851,1.912117,-0.195301,6.255141
0.020000,2.390425,10.446594,2.088010,2.862015,1.908203,-0.195722,6.255097
0.020000,2.448404,10.444965,2.146012,2.900099,1.904221,-0.199093,6.255095
0.020000,2.507143,10.443316,2.204774,2.938103,1.900166,-0.202730,6.255137
0.020000,2.566640,10.441649,2.264294,2.976024,1.896053,-0.205651,6.255223
0.020000,2.626495,10.439979,2.324172,2.993909,0.894258,-50.089763,6.255357
0.020000,2.686309,10.438319,2.384009,2.991813,-0.104782,-49.952024,6.255536
0.020000,2.746080,10.436672,2.443803,2.989717,-0.104816,-0.001686,6.255760
0.020000,2.805810,10.435042,2.503555,2.987620,-0.104858,-0.002113,6.256031
0.020000,2.865499,10.433430,2.563266,2.985522,-0.104909,-0.002538,6.256347
0.020000,2.925146,10.431839,2.622934,2.983422,-0.104968,-0.002961,6.256710
0.020000,2.984752,10.430272,2.682561,2.981322,-0.105036,-0.003381,6.257118
0.020000,3.044317,10.428733,2.742145,2.979219,-0.105112,-0.003797,6.257572
0.020000,3.103840,10.427222,2.801687,2.977115,-0.105196,-0.004209,6.258072
0.020000,3.163322,10.425744,2.861187,2.975010,-0.105288,-0.004617,6.258619
0.020000,3.222762,10.424301,2.920646,2.972902,-0.105389,-0.005020,6.259211
0.020000,3.282161,10.422896,2.980061,2.970792,-0.105497,-0.005418,6.259849
0.020000,3.341519,10.421530,3.039435,2.968680,-0.105613,-0.005811,6.260534
0.020000,3.400836,10.420208,3.098766,2.966565,-0.105737,-0.006197,6.261265
0.020000,3.460111,10.418931,3.158055,2.964448,-0.105869,-0.006576,6.262042
0.020000,3.519345,10.417703,3.217302,2.962327,-0.106008,-0.006948,6.262865
0.020000,3.578537,10.416525,3.276506,2.960204,-0.106154,-0.007313,6.263735
0.020000,3.637688,10.415402,3.335667,2.958078,-0.106307,-0.007669,6.264652
0.020000,3.696797,10.414334,3.394786,2.955949,-0.106468,-0.008017,6.265614
0.020000,3.755865,10.413326,3.453863,2.953816,-0.106635,-0.008355,6.266624
0.020000,3.814891,10.412379,3.512896,2.951680,-0.106809,-0.008684,6.267680
0.020000,3.873875,10.411497,3.571887,2.949540,-0.106989,-0.009002,6.268783
0.020000,3.932818,10.410681,3.630835,2.947397,-0.107175,-0.009310,6.269933
0.020000,3.991718,10.409936,3.689740,2.945249,-0.107367,-0.009606,6.271130
0.020000,4.050576,10.409263,3.748602,2.943098,-0.107565,-0.009890,6.272373
0.020000,4.109392,10.408664,3.807421,2.940943,-0.107768,-0.010161,6.273664
0.020000,4.168165,10.408144,3.866196,2.938783,-0.107976,-0.010419,6.275002
0.020000,4.226896,10.407704,3.924929,2.936619,-0.108190,-0.010663,6.276388
0.020000,4.285584,10.407347,3.983618,2.934451,-0.108407,-0.010893,6.277820
0.020000,4.344229,10.407075,4.042263,2.932279,-0.108630,-0.011107,6.279301
0.020000,4.402830,10.406892,4.100865,2.930101,-0.108856,-0.011305,6.280828
0.020000,4.461389,10.406800,4.159424,2.927920,-0.109085,-0.011487,6.282404
0.020000,4.519903,10.406801,4.217939,2.925733,-0.109318,-0.011651,0.000842
0.020000,4.578374,10.406899,4.276409,2.923542,-0.109554,-0.011798,0.002513
0.020000,4.636801,10.407096,4.334836,2.921346,-0.109793,-0.011925,0.004232
0.020000,4.695183,10.407395,4.393219,2.919146,-0.110034,-0.012033,0.006000
0.020000,4.753520,10.407797,4.451558,2.916940,-0.110276,-0.012121,0.007815
0.020000,4.811813,10.408307,4.509853,2.914730,-0.110520,-0.012188,0.009679
0.020000,4.870060,10.408926,4.568103,2.912515,-0.110764,-0.012233,0.011591
0.020000,4.928261,10.409658,4.626309,2.910294,-0.111010,-0.012255,0.013552
0.020000,4.986416,10.410504,4.684470,2.908069,-0.111255,-0.012253,0.015561
0.020000,5.044525,10.411468,4.742587,2.905839,-0.111499,-0.012227,0.017620
0.020000,5.102587,10.412552,4.800659,2.903604,-0.111743,-0.012176,0.019727
0.020000,5.160602,10.413759,4.858686,2.901365,-0.111985,-0.012099,0.021883
0.020000,5.218569,10.415091,4.916669,2.899120,-0.112225,-0.011995,0.024088
0.020000,5.276488,10.416552,4.974606,2.896871,-0.112462,-0.011862,0.026342
0.020000,5.334358,10.418143,5.032499,2.894617,-0.112696,-0.011702,0.028645
0.020000,5.392180,10.419868,5.090346,2.892359,-0.112926,-0.011511,0.030998
0.020000,5.449952,10.421728,5.148148,2.890096,-0.113152,-0.011290,0.033400
0.020000,5.507674,10.423727,5.205904,2.887828,-0.113373,-0.011037,0.035852
0.020000,5.565345,10.425868,5.263615,2.885556,-0.113588,-0.010751,0.038354
0.020000,5.622965,10.428152,5.321281,2.883280,-0.113796,-0.010433,0.040905
0.020000,5.680534,10.430583,5.378901,2.881000,-0.113998,-0.010080,0.043506
0.020000,5.738051,10.433163,5.436475,2.878717,-0.114192,-0.009691,0.046157
0.020000,5.795514,10.435895,5.494004,2.876429,-0.114377,-0.009267,0.048858
0.020000,5.852925,10.438781,5.551487,2.874138,-0.114553,-0.008805,0.051609
0.020000,5.910281,10.441824,5.608923,2.871844,-0.114719,-0.008305,0.054410
0.020000,5.967582,10.445027,5.666314,2.869546,-0.114875,-0.007766,0.057262
0.020000,6.024828,10.448391,5.723659,2.867246,-0.115018,-0.007187,0.060163
0.020000,6.082019,10.451921,5.780958,2.864943,-0.115150,-0.006568,0.063115
0.020000,6.139152,10.455617,5.838211,2.862637,-0.115268,-0.005907,0.066118
0.020000,6.196228,10.459484,5.895418,2.860330,-0.115372,-0.005203,0.069171
0.020000,6.253245,10.463523,5.952578,2.858021,-0.115461,-0.004456,0.072274
0.020000,6.310204,10.467737,6.009692,2.855711,-0.115500,-0.001936,0.075428
0.020000,6.367102,10.472128,6.066760,2.853400,-0.115559,-0.002947,0.078632
0.020000,6.423941,10.476699,6.123782,2.851087,-0.115633,-0.003704,0.081887
0.020000,6.480717,10.481453,6.180757,2.848774,-0.115654,-0.001050,0.085192
0.020000,6.537432,10.486392,6.237687,2.846461,-0.115655,-0.000077,0.088548
0.020000,6.594084,10.491519,6.294570,2.844148,-0.115636,0.000944,0.091955
0.020000,6.650671,10.496835,6.351406,2.841836,-0.115596,0.002014,0.095412
0.020000,6.707194,10.502345,6.408197,2.839525,-0.115533,0.003132,0.098920
0.020000,6.763651,10.508049,6.464941,2.837217,-0.115447,0.004299,0.102478
0.020000,6.820041,10.513950,6.521639,2.834910,-0.115337,0.005515,0.106086
0.020000,6.876363,10.520052,6.578291,2.832606,-0.115202,0.006782,0.109745
0.020000,6.932617,10.526356,6.634897,2.830305,-0.115040,0.008098,0.113454
0.020000,6.988802,10.532864,6.691458,2.828008,-0.114850,0.009464,0.117214
0.020000,7.044916,10.539580,6.747972,2.825715,-0.114633,0.010881,0.121023
0.020000,7.100958,10.546505,6.804441,2.823428,-0.114386,0.012348,0.124883
0.020000,7.156928,10.553642,6.860863,2.821145,-0.114108,0.013865,0.128792
0.020000,7.212824,10.560994,6.917241,2.818869,-0.113800,0.015432,0.132751
0.020000,7.268645,10.568562,6.973573,2.816601,-0.113445,0.017736,0.136760
0.020000,7.324391,10.576348,7.029860,2.814339,-0.113088,0.017829,0.140818
0.020000,7.380059,10.584356,7.086101,2.812085,-0.112688,0.020034,0.144925
0.020000,7.435650,10.592587,7.142298,2.809840,-0.112245,0.022158,0.149082
0.020000,7.491162,10.601044,7.198450,2.807605,-0.111765,0.023969,0.153287
0.020000,7.546593,10.609729,7.254558,2.805380,-0.111249,0.025827,0.157541
0.020000,7.601943,10.618643,7.310621,2.803166,-0.110694,0.027730,0.161843
0.020000,7.657211,10.627790,7.366640,2.800964,-0.110101,0.029677,0.166194
0.020000,7.712394,10.637171,7.422616,2.798775,-0.109467,0.031668,0.170592
0.020000,7.767493,10.646789,7.478548,2.796599,-0.108793,0.033701,0.175038
0.020000,7.822506,10.656645,7.534437,2.794437,-0.108078,0.035774,0.179531
0.020000,7.877432,10.666742,7.590282,2.792291,-0.107320,0.037886,0.184071
0.020000,7.932269,10.677081,7.646086,2.790160,-0.106519,0.040035,0.188658
0.020000,7.987016,10.687665,7.701847,2.788047,-0.105675,0.042219,0.193290
0.020000,8.041672,10.698496,7.757566,2.785951,-0.104786,0.044436,0.197969
0.020000,8.096236,10.709575,7.813243,2.783874,-0.103865,0.046049,0.202693
0.020000,8.150707,10.720905,7.868879,2.781815,-0.102949,0.045807,0.207462
0.020000,8.205082,10.732487,7.924475,2.779778,-0.101862,0.054347,0.212276
0.020000,8.259362,10.744323,7.980030,2.777762,-0.100790,0.053597,0.217133
0.020000,8.313544,10.756416,8.035546,2.775768,-0.099671,0.055947,0.222034
0.020000,8.367628,10.768766,8.091021,2.773798,-0.098505,0.058316,0.226978
0.020000,8.421612,10.781375,8.146459,2.771852,-0.097291,0.060699,0.231965
0.020000,8.475495,10.794246,8.201857,2.769932,-0.096029,0.063095,0.236994
0.020000,8.529275,10.807380,8.257218,2.768038,-0.094719,0.065499,0.242064
0.020000,8.582951,10.820779,8.312541,2.766170,-0.093361,0.067908,0.247175
0.020000,8.636523,10.834443,8.367828,2.764331,-0.091954,0.070320,0.252326
0.020000,8.689988,10.848375,8.423078,2.762521,-0.090500,0.072729,0.257517
0.020000,8.743345,10.862577,8.478293,2.760741,-0.088997,0.075134,0.262747
0.020000,8.796593,10.877049,8.533473,2.758992,-0.087447,0.077530,0.268014
0.020000,8.849731,10.891793,8.588619,2.757275,-0.085848,0.079914,0.273320
0.020000,8.902757,10.906811,8.643730,2.755591,-0.084203,0.082281,0.278662
0.020000,8.955671,10.922104,8.698809,2.753941,-0.082510,0.084628,0.284040
0.020000,9.008469,10.937673,8.753856,2.752326,-0.080771,0.086952,0.289454
0.020000,9.061153,10.953519,8.808871,2.750746,-0.078986,0.089248,0.294902
0.020000,9.113719,10.969644,8.863855,2.749203,-0.077156,0.091513,0.300384
0.020000,9.166168,10.986049,8.918809,2.747697,-0.075281,0.093743,0.305898
0.020000,9.218496,11.002734,8.973733,2.746230,-0.073362,0.095934,0.311445
0.020000,9.270704,11.019702,9.028629,2.744802,-0.071401,0.098083,0.317023
0.020000,9.322790,11.036952,9.083498,2.743414,-0.069397,0.100187,0.322631
0.020000,9.374753,11.054487,9.138339,2.742067,-0.067352,0.102240,0.328269
0.020000,9.426591,11.072306,9.193154,2.740762,-0.065267,0.104241,0.333936
0.020000,9.478303,11.090412,9.247944,2.739499,-0.063144,0.106186,0.339629
0.020000,9.529888,11.108804,9.302710,2.738279,-0.060982,0.108072,0.345350
0.020000,9.581344,11.127483,9.357452,2.737103,-0.058784,0.109896,0.351096
0.020000,9.632671,11.146451,9.412171,2.735972,-0.056551,0.111656,0.356867
0.020000,9.683867,11.165707,9.466869,2.734887,-0.054284,0.113347,0.362662
0.020000,9.734931,11.185253,9.521546,2.733847,-0.051985,0.114969,0.368479
0.020000,9.785862,11.205089,9.576203,2.732854,-0.049654,0.116519,0.374319
0.020000,9.836658,11.225216,9.630841,2.731908,-0.047294,0.117995,0.380178
0.020000,9.887318,11.245633,9.685461,2.731010,-0.044907,0.119395,0.386058
0.020000,9.937842,11.266343,9.740065,2.730160,-0.042492,0.120719,0.391956
0.020000,9.988228,11.287344,9.794652,2.729359,-0.040053,0.121963,0.397872
0.020000,10.038474,11.308637,9.849224,2.728607,-0.037590,0.123129,0.403804
0.020000,10.088580,11.330223,9.903782,2.727896,-0.035566,0.101241,0.409751
0.020000,10.138545,11.352102,9.958326,2.727233,-0.033154,0.120552,0.415713
0.020000,10.188367,11.374273,10.012859,2.726629,-0.030214,0.147034,0.421688
0.020000,10.238045,11.396738,10.067380,2.726075,-0.027684,0.126509,0.427675
0.020000,10.287579,11.419495,10.121892,2.725572,-0.025138,0.127255,0.433674
0.020000,10.336967,11.442546,10.176394,2.725121,-0.022580,0.127923,0.439682
0.020000,10.386208,11.465890,10.230889,2.724720,-0.020010,0.128513,0.445699
0.020000,10.435302,11.489527,10.285376,2.724372,-0.017429,0.129026,0.451724
0.020000,10.484246,11.513456,10.339857,2.724042,-0.016470,0.047947,0.457755
0.020000,10.533040,11.537678,10.394333,2.723789,-0.012687,0.189163,0.463792
0.020000,10.581684,11.562193,10.448805,2.723591,-0.009859,0.141411,0.469834
0.020000,10.630176,11.587000,10.503274,2.723446,-0.007264,0.129728,0.475879
0.020000,10.678516,11.612099,10.557741,2.723353,-0.004667,0.129872,0.481926
0.020000,10.726701,11.637489,10.612206,2.723280,-0.003641,0.051309,0.487974
0.020000,10.774732,11.663169,10.666671,2.723263,-0.000862,0.138926,0.494023
0.020000,10.822608,11.689141,10.721138,2.723320,0.002851,0.185638,0.500070
0.020000,10.870328,11.715402,10.775606,2.723428,0.005434,0.129151,0.506116
0.020000,10.917890,11.741953,10.830078,2.723564,0.006781,0.067380,0.512158
0.020000,10.965294,11.768792,10.884552,2.723724,0.007988,0.060335,0.518196
0.020000,11.012540,11.795919,10.939032,2.723980,0.012826,0.241922,0.524230
0.020000,11.059626,11.823333,10.993518,2.724288,0.015377,0.127543,0.530256
0.020000,11.106551,11.851034,11.048009,2.724578,0.014488,-0.044448,0.536276
0.020000,11.153316,11.879021,11.102508,2.724957,0.018976,0.224408,0.542288
0.020000,11.199919,11.907292,11.157016,2.725409,0.022595,0.180939,0.548290
0.020000,11.246360,11.935847,11.211533,2.725847,0.021879,-0.035807,0.554282
0.020000,11.292637,11.964685,11.266060,2.726347,0.025032,0.157639,0.560263
0.020000,11.338750,11.993805,11.320599,2.726940,0.029649,0.230850,0.566232
0.020000,11.384699,12.023206,11.375149,2.727487,0.027316,-0.116618,0.572188
0.020000,11.430483,12.052886,11.429712,2.728138,0.032567,0.262519,0.578130
0.020000,11.476102,12.082846,11.484289,2.728846,0.035412,0.142268,0.584058
0.020000,11.518908,12.111279,11.535677,2.569420,-7.971316,-400.336397,0.586006
0.020000,11.576020,12.148816,11.604021,3.417198,42.388898,2518.010667,0.576887
0.020000,11.633487,12.185838,11.672381,3.417996,0.039928,-2117.448491,0.567750
0.020000,11.691301,12.222341,11.740754,3.418641,0.032209,-0.385942,0.558600
0.020000,11.749454,12.258318,11.809136,3.419127,0.024313,-0.394780,0.549438
0.020000,11.807941,12.293763,11.877525,3.419452,0.016261,-0.402597,0.540269
0.020000,11.866753,12.328672,11.945917,3.419614,0.008074,-0.409381,0.531097
0.020000,11.925882,12.363041,12.014310,3.419609,-0.000229,-0.415120,0.521925
0.020000,11.985321,12.396864,12.082698,3.419436,-0.008625,-0.419812,0.512757
0.020000,12.045062,12.430138,12.151080,3.419095,-0.017094,-0.423455,0.503596
0.020000,12.105096,12.462858,12.219452,3.418582,-0.025615,-0.426054,0.494446
0.020000,12.165414,12.495022,12.287810,3.417899,-0.034167,-0.427619,0.485312
0.020000,12.226009,12.526625,12.356151,3.417044,-0.042731,-0.428163,0.476196
0.020000,12.286870,12.557667,12.424471,3.416019,-0.051285,-0.427704,0.467102
0.020000,12.347989,12.588144,12.492768,3.414822,-0.059810,-0.426265,0.458035
0.020000,12.409357,12.618055,12.561037,3.413461,-0.068070,-0.413006,0.448997
0.020000,12.470965,12.647397,12.629276,3.411940,-0.076036,-0.398281,0.439993
0.020000,12.532803,12.676171,12.697480,3.410240,-0.085026,-0.449505,0.431025
0.020000,12.594863,12.704375,12.765648,3.408375,-0.093264,-0.411925,0.422099
0.020000,12.657134,12.732008,12.833775,3.406347,-0.101384,-0.405992,0.413217
0.020000,12.719607,12.759072,12.901858,3.404178,-0.108447,-0.353126,0.404382
0.020000,12.782273,12.785565,12.969895,3.401834,-0.117186,-0.436981,0.395599
0.020000,12.845123,12.811491,13.037882,3.399335,-0.124939,-0.387655,0.386870
0.020000,12.908147,12.836848,13.105816,3.396698,-0.131867,-0.346397,0.378198
0.020000,12.971336,12.861640,13.173694,3.393910,-0.139426,-0.377937,0.369588
0.020000,13.034680,12.885868,13.241513,3.390970,-0.146970,-0.377197,0.361042
0.020000,13.098171,12.909534,13.309271,3.387905,-0.153260,-0.314485,0.352563
0.020000,13.161799,12.932641,13.376965,3.384697,-0.160398,-0.356891,0.344154
0.020000,13.225555,12.955193,13.444593,3.381355,-0.167111,-0.335645,0.335818
0.020000,13.289431,12.977192,13.512151,3.377901,-0.172691,-0.279017,0.327558
0.020000,13.353417,12.998642,13.579637,3.374310,-0.179532,-0.342073,0.319376
0.020000,13.417506,13.019548,13.647049,3.370613,-0.184882,-0.267493,0.311275
0.020000,13.481688,13.039914,13.714385,3.366800,-0.190647,-0.288252,0.303257
0.020000,13.545956,13.059744,13.781643,3.362878,-0.196061,-0.270679,0.295325
0.020000,13.610301,13.079043,13.848820,3.358861,-0.200885,-0.241196,0.287481
0.020000,13.674716,13.097817,13.915915,3.354738,-0.206135,-0.262525,0.279727
0.020000,13.739193,13.116071,13.982925,3.350533,-0.210239,-0.205206,0.272065
0.020000,13.803723,13.133811,14.049850,3.346232,-0.215062,-0.241153,0.264497
0.020000,13.868301,13.151042,14.116687,3.341856,-0.218813,-0.187517,0.257025
0.020000,13.932919,13.167771,14.183435,3.337397,-0.222917,-0.205231,0.249650
0.020000,13.997569,13.184004,14.250092,3.332870,-0.226366,-0.172442,0.242374
0.020000,14.062246,13.199748,14.316658,3.328273,-0.229840,-0.173711,0.235198
0.020000,14.126943,13.215009,14.383130,3.323615,-0.232923,-0.154129,0.228124
0.020000,14.191653,13.229794,14.449508,3.318898,-0.235853,-0.146485,0.221154
0.020000,14.256371,13.244111,14.515791,3.314127,-0.238528,-0.133775,0.214287
0.020000,14.321091,13.257966,14.581977,3.309308,-0.240981,-0.122665,0.207526
0.020000,14.385806,13.271368,14.648066,3.304443,-0.243231,-0.112479,0.200872
0.020000,14.450513,13.284322,14.714056,3.299538,-0.245266,-0.101743,0.194324
0.020000,14.515206,13.296837,14.779948,3.294596,-0.247084,-0.090925,0.187885
0.020000,14.579879,13.308921,14.845741,3.289621,-0.248754,-0.083492,0.181554
0.020000,14.644528,13.320581,14.911433,3.284618,-0.250144,-0.069483,0.175333
0.020000,14.709149,13.331824,14.977025,3.279588,-0.251501,-0.067878,0.169222
0.020000,14.773737,13.342660,15.042516,3.274539,-0.252467,-0.048287,0.163221
0.020000,14.838289,13.353095,15.107905,3.269467,-0.253567,-0.054995,0.157331
0.020000,14.902799,13.363137,15.173193,3.264385,-0.254133,-0.028293,0.151552
0.020000,14.967266,13.372795,15.238378,3.259285,-0.254974,-0.042064,0.145884
0.020000,15.031684,13.382077,15.303462,3.254181,-0.255232,-0.012895,0.140328
0.020000,15.096051,13.390990,15.368443,3.249065,-0.255763,-0.026530,0.134884
0.020000,15.160364,13.399542,15.433322,3.243949,-0.255826,-0.003138,0.129552
0.020000,15.224619,13.407743,15.498099,3.238828,-0.256017,-0.009564,0.124331
0.020000,15.288815,13.415598,15.562773,3.233709,-0.255963,0.002708,0.119223
0.020000,15.352947,13.423118,15.627345,3.228593,-0.255796,0.008345,0.114226
0.020000,15.417014,13.430309,15.691814,3.223479,-0.255703,0.004626,0.109341
0.020000,15.481014,13.437180,15.756182,3.218376,-0.255158,0.027271,0.104568
0.020000,15.544944,13.443738,15.820447,3.213274,-0.255104,0.002686,0.099906
0.020000,15.608802,13.449992,15.884611,3.208188,-0.254276,0.041405,0.095356
0.020000,15.672587,13.455949,15.948673,3.203109,-0.253986,0.014493,0.090916
0.020000,15.736296,13.461618,16.012634,3.198044,-0.253240,0.037305,0.086587
0.020000,15.799928,13.467006,16.076494,3.192993,-0.252562,0.033914,0.082369
0.020000,15.863482,13.472120,16.140253,3.187953,-0.252007,0.027735,0.078260
0.020000,15.926745,13.476954,16.203700,3.172349,-0.780179,-26.408588,0.074275
0.020000,15.989293,13.481487,16.266413,3.135637,-1.835610,-52.771545,0.070437
0.020000,16.050918,13.485721,16.328183,3.088504,-2.356652,-26.052128,0.066754
0.020000,16.111621,13.489671,16.389015,3.041582,-2.346103,0.527474,0.063223
0.020000,16.171405,13.493353,16.448912,2.994866,-2.335782,0.516024,0.059839
0.020000,16.230273,13.496784,16.507879,2.948353,-2.325639,0.507183,0.056597
0.020000,16.288225,13.499977,16.565920,2.902036,-2.315848,0.489510,0.053493
0.020000,16.345267,13.502946,16.623038,2.855921,-2.305761,0.504389,0.050522
0.020000,16.401399,13.505704,16.679238,2.809991,-2.296501,0.462981,0.047682
0.020000,16.456624,13.508263,16.734523,2.764254,-2.286853,0.482408,0.044967
0.020000,16.510947,13.510637,16.788897,2.718699,-2.277726,0.456363,0.042373
0.020000,16.564368,13.512835,16.842363,2.673325,-2.268741,0.449240,0.039896
0.020000,16.616891,13.514869,16.894926,2.628127,-2.259901,0.442012,0.037534
0.020000,16.668519,13.516750,16.946588,2.583102,-2.251207,0.434659,0.035281
0.020000,16.719254,13.518485,16.997353,2.538248,-2.242705,0.425140,0.033134
0.020000,16.769100,13.520086,17.047224,2.493555,-2.234645,0.402968,0.031090
0.020000,16.818058,13.521561,17.096205,2.449030,-2.226297,0.417418,0.029145
0.020000,16.866132,13.522918,17.144298,2.404661,-2.218447,0.392493,0.027295
0.020000,16.913324,13.524164,17.191507,2.360444,-2.210825,0.381111,0.025537
0.020000,16.959638,13.525309,17.237834,2.316381,-2.203148,0.383830,0.023868
0.020000,17.005075,13.526357,17.283284,2.272465,-2.195823,0.366263,0.022285
0.020000,17.049639,13.527317,17.327858,2.228693,-2.188584,0.361928,0.020784
0.020000,17.093331,13.528194,17.371559,2.185064,-2.181431,0.357656,0.019363
0.020000,17.136155,13.528994,17.414390,2.141571,-2.174682,0.337484,0.018018
0.020000,17.178113,13.529723,17.456355,2.098215,-2.167802,0.343974,0.016746
0.020000,17.219207,13.530387,17.497454,2.054986,-2.161424,0.318909,0.015545
0.020000,17.259441,13.530989,17.537692,2.011888,-2.154895,0.326449,0.014412
0.020000,17.298815,13.531536,17.577070,1.968915,-2.148642,0.312635,0.013343
0.020000,17.337333,13.532030,17.615592,1.926065,-2.142535,0.305383,0.012337
0.020000,17.374997,13.532477,17.653258,1.883331,-2.136682,0.292645,0.011391
0.020000,17.411809,13.532880,17.690073,1.840716,-2.130782,0.294981,0.010501
0.020000,17.447772,13.533242,17.726037,1.798213,-2.125130,0.282596,0.009667
0.020000,17.482887,13.533568,17.761153,1.755820,-2.119648,0.274128,0.008885
0.020000,17.517156,13.533860,17.795424,1.713534,-2.114315,0.266622,0.008152
0.020000,17.550582,13.534121,17.828851,1.671353,-2.109030,0.264280,0.007468
0.020000,17.583167,13.534353,17.861436,1.629274,-2.103958,0.253587,0.006829
0.020000,17.614912,13.534561,17.893182,1.587294,-2.099003,0.247728,0.006233
0.020000,17.645820,13.534745,17.924091,1.545410,-2.094200,0.240180,0.005678
0.020000,17.675892,13.534908,17.954163,1.503618,-2.089573,0.231324,0.005162
0.020000,17.705130,13.535052,17.983401,1.461920,-2.084910,0.233179,0.004684
0.020000,17.733536,13.535178,18.011807,1.420308,-2.080634,0.213766,0.004241
0.020000,17.761111,13.535289,18.039383,1.378782,-2.076262,0.218594,0.003831
0.020000,17.787858,13.535387,18.066130,1.337340,-2.072126,0.206797,0.003453
0.020000,17.813777,13.535472,18.092049,1.295977,-2.068115,0.200595,0.003104
0.020000,17.838871,13.535546,18.117143,1.254693,-2.064216,0.194913,0.002784
0.020000,17.863140,13.535610,18.141413,1.213484,-2.060434,0.189102,0.002490
0.020000,17.886587,13.535665,18.164860,1.172348,-2.056842,0.179621,0.002221
0.020000,17.909213,13.535712,18.187486,1.131282,-2.053274,0.178368,0.001975
0.020000,17.931018,13.535753,18.209291,1.090284,-2.049925,0.167477,0.001751
0.020000,17.952005,13.535787,18.230278,1.049351,-2.046622,0.165137,0.001547
0.020000,17.972175,13.535817,18.250448,1.008481,-2.043499,0.156149,0.001362
0.020000,17.991528,13.535841,18.269801,0.967671,-2.040487,0.150588,0.001195
0.020000,18.010067,13.535862,18.288340,0.926920,-2.037589,0.144915,0.001045
0.020000,18.027791,13.535880,18.306064,0.886224,-2.034806,0.139132,0.000910
0.020000,18.044703,13.535894,18.322976,0.845581,-2.032146,0.133043,0.000788
0.020000,18.060803,13.535906,18.339076,0.804987,-2.029665,0.124008,0.000680
0.020000,18.076091,13.535915,18.354364,0.764443,-2.027204,0.123091,0.000584
0.020000,18.090570,13.535923,18.368843,0.723944,-2.024938,0.113261,0.000498
0.020000,18.104240,13.535929,18.382513,0.683489,-2.022790,0.107444,0.000423
0.020000,18.117102,13.535934,18.395375,0.643074,-2.020726,0.103175,0.000356
0.020000,18.129156,13.535938,18.407429,0.602698,-2.018806,0.095976,0.000298
0.020000,18.140403,13.535941,18.418676,0.562358,-2.017020,0.089344,0.000247
0.020000,18.150844,13.535944,18.429117,0.522051,-2.015316,0.085157,0.000203
0.020000,18.160479,13.535946,18.438752,0.481776,-2.013762,0.077734,0.000165
0.020000,18.169310,13.535947,18.447583,0.441530,-2.012324,0.071870,0.000132
0.020000,18.177336,13.535948,18.455609,0.401309,-2.011008,0.065842,0.000104
0.020000,18.184558,13.535949,18.462831,0.361113,-2.009798,0.060462,0.000081
0.020000,18.190977,13.535949,18.469250,0.320939,-2.008721,0.053852,0.000061
0.020000,18.196593,13.535949,18.474866,0.280784,-2.007761,0.048020,0.000045
0.020000,18.201406,13.535949,18.479679,0.240645,-2.006918,0.042147,0.000031
0.020000,18.205416,13.535950,18.483689,0.200521,-2.006208,0.035492,0.000021
0.020000,18.208624,13.535950,18.486897,0.160409,-2.005597,0.030536,0.000012
0.020000,18.211030,13.535950,18.489303,0.120307,-2.005124,0.023692,0.000006
0.020000,18.212635,13.535950,18.490908,0.080212,-2.004756,0.018366,0.000002
0.020000,18.213437,13.535950,18.491710,0.040121,-2.004521,0.011758,0.000000
0.020000,18.213638,13.535950,18.491911,0.010039,-1.504141,25.019027,0.000000
0.020000,18.213638,13.535950,18.491911,0.000000,-0.501927,50.110698,0.000000
