dt,x,y,position,velocity,acceleration,jerk,heading
0.010000,4.535043,12.551878,0.000050,0.009993,0.999323,99.932314,0.000000
0.010000,4.535043,12.551878,0.000050,0.000000,-0.999323,-199.864629,0.000000
0.010000,4.535043,12.551878,0.000050,0.000000,0.000000,99.932314,0.000000
0.010000,4.535043,12.551878,0.000050,0.000000,0.000000,0.000000,0.000000
0.010000,4.535043,12.551878,0.000050,0.000000,0.000000,0.000000,0.000000
0.010000,4.535043,12.551878,0.000050,0.000000,0.000000,0.000000,0.000000
0.010000,4.535043,12.551878,0.000050,0.000000,0.000000,0.000000,0.000000
0.010000,4.535179,12.551878,0.000185,0.013537,1.353750,135.374994,0.000000
0.010000,4.536777,12.551878,0.001784,0.159892,14.635420,1328.167043,0.000000
0.010000,4.538576,12.551878,0.003583,0.179878,1.998646,-1263.677408,0.000000
0.010000,4.540575,12.551878,0.005582,0.199865,1.998646,0.000000,0.000000
0.010000,4.542773,12.551878,0.007780,0.219851,1.998646,-0.000000,0.000000
0.010000,4.545172,12.551878,0.010179,0.239838,1.998646,0.000000,0.000000
0.010000,4.547770,12.551878,0.012777,0.259824,1.998646,0.000000,0.000000
0.010000,4.550568,12.551878,0.015575,0.279810,1.998646,-0.000000,0.000000
0.010000,4.553566,12.551878,0.018573,0.299797,1.998646,0.000000,0.000000
0.010000,4.556764,12.551878,0.021771,0.319783,1.998646,0.000000,0.000000
0.010000,4.560162,12.551878,0.025168,0.339770,1.998646,-0.000000,0.000000
0.010000,4.563759,12.551878,0.028766,0.359756,1.998646,0.000000,0.000000
0.010000,4.567557,12.551878,0.032563,0.379743,1.998646,-0.000000,0.000000
0.010000,4.571554,12.551878,0.036561,0.399729,1.998646,0.000000,0.000000
0.010000,4.575751,12.551878,0.040758,0.419716,1.998646,0.000000,0.000000
0.010000,4.580148,12.551878,0.045155,0.439702,1.998646,-0.000000,0.000000
0.010000,4.584745,12.551878,0.049752,0.459689,1.998646,0.000000,0.000000
0.010000,4.589542,12.551878,0.054549,0.479675,1.998646,-0.000000,0.000000
0.010000,4.594538,12.551878,0.059545,0.499662,1.998646,0.000000,0.000000
0.010000,4.599735,12.551878,0.064742,0.519648,1.998646,-0.000000,0.000000
0.010000,4.605131,12.551878,0.070138,0.539634,1.998646,0.000000,0.000000
0.010000,4.610727,12.551878,0.075734,0.559621,1.998646,0.000000,0.000000
0.010000,4.616523,12.551878,0.081530,0.579607,1.998646,-0.000000,0.000000
0.010000,4.622519,12.551878,0.087526,0.599594,1.998646,0.000000,0.000000
0.010000,4.628715,12.551878,0.093722,0.619580,1.998646,0.000000,0.000000
0.010000,4.635111,12.551878,0.100118,0.639567,1.998646,-0.000000,0.000000
0.010000,4.641706,12.551878,0.106713,0.659553,1.998646,0.000000,0.000000
0.010000,4.648502,12.551878,0.113509,0.679540,1.998646,-0.000000,0.000000
0.010000,4.655497,12.551878,0.120504,0.699526,1.998646,0.000000,0.000000
0.010000,4.662692,12.551878,0.127699,0.719513,1.998646,0.000000,0.000000
0.010000,4.670087,12.551878,0.135094,0.739499,1.998646,-0.000000,0.000000
0.010000,4.677682,12.551878,0.142689,0.759486,1.998646,0.000000,0.000000
0.010000,4.685477,12.551878,0.150484,0.779472,1.998646,-0.000000,0.000000
0.010000,4.693471,12.551878,0.158478,0.799459,1.998646,0.000000,0.000000
0.010000,4.701666,12.551878,0.166673,0.819445,1.998646,-0.000000,0.000000
0.010000,4.710060,12.551878,0.175067,0.839431,1.998646,0.000000,0.000000
0.010000,4.718654,12.551878,0.183661,0.859418,1.998646,0.000000,0.000000
0.010000,4.727448,12.551878,0.192455,0.879404,1.998646,-0.000000,0.000000
0.010000,4.736442,12.551878,0.201449,0.899391,1.998646,0.000000,0.000000
0.010000,4.745636,12.551878,0.210643,0.919377,1.998646,0.000000,0.000000
0.010000,4.755030,12.551878,0.220036,0.939364,1.998646,-0.000000,0.000000
0.010000,4.764623,12.551878,0.229630,0.959350,1.998646,0.000000,0.000000
0.010000,4.774416,12.551878,0.239423,0.979337,1.998646,-0.000000,0.000000
0.010000,4.784410,12.551878,0.249417,0.999323,1.998646,0.000000,0.000000
0.010000,4.794603,12.551878,0.259610,1.019310,1.998646,0.000000,0.000000
0.010000,4.804996,12.551878,0.270003,1.039296,1.998646,-0.000000,0.000000
0.010000,4.815589,12.551878,0.280595,1.059283,1.998646,0.000000,0.000000
0.010000,4.826381,12.551878,0.291388,1.079269,1.998646,0.000000,0.000000
0.010000,4.837374,12.551878,0.302381,1.099255,1.998646,0.000000,0.000000
0.010000,4.848566,12.551878,0.313573,1.119242,1.998646,-0.000000,0.000000
0.010000,4.859959,12.551878,0.324965,1.139228,1.998646,0.000000,0.000000
0.010000,4.871551,12.551878,0.336558,1.159215,1.998646,0.000000,0.000000
0.010000,4.883343,12.551878,0.348350,1.179201,1.998646,-0.000000,0.000000
0.010000,4.895335,12.551878,0.360341,1.199188,1.998646,0.000000,0.000000
0.010000,4.907526,12.551878,0.372533,1.219174,1.998646,0.000000,0.000000
0.010000,4.919918,12.551878,0.384925,1.239161,1.998646,-0.000000,0.000000
0.010000,4.932509,12.551878,0.397516,1.259147,1.998646,0.000000,0.000000
0.010000,4.945301,12.551878,0.410308,1.279134,1.998646,-0.000000,0.000000
0.010000,4.958292,12.551878,0.423299,1.299120,1.998646,0.000000,0.000000
0.010000,4.971483,12.551878,0.436490,1.319107,1.998646,0.000000,0.000000
0.010000,4.984874,12.551878,0.449881,1.339093,1.998646,-0.000000,0.000000
0.010000,4.998465,12.551878,0.463472,1.359079,1.998646,0.000000,0.000000
0.010000,5.012255,12.551878,0.477262,1.379066,1.998646,-0.000000,0.000000
0.010000,5.026246,12.551878,0.491253,1.399052,1.998646,0.000000,0.000000
0.010000,5.040436,12.551878,0.505443,1.419039,1.998646,-0.000000,0.000000
0.010000,5.054827,12.551878,0.519833,1.439025,1.998646,0.000000,0.000000
0.010000,5.069417,12.551878,0.534423,1.459012,1.998646,0.000000,0.000000
0.010000,5.084207,12.551878,0.549213,1.478998,1.998646,-0.000000,0.000000
0.010000,5.099196,12.551878,0.564203,1.498985,1.998646,0.000000,0.000000
0.010000,5.114386,12.551878,0.579393,1.518971,1.998646,0.000000,0.000000
0.010000,5.129776,12.551878,0.594783,1.538958,1.998646,-0.000000,0.000000
0.010000,5.145365,12.551878,0.610372,1.558944,1.998646,0.000000,0.000000
0.010000,5.161155,12.551878,0.626161,1.578931,1.998646,-0.000000,0.000000
0.010000,5.177144,12.551878,0.642151,1.598917,1.998646,0.000000,0.000000
0.010000,5.193333,12.551878,0.658340,1.618903,1.998646,0.000000,0.000000
0.010000,5.209722,12.551878,0.674728,1.638890,1.998646,0.000000,0.000000
0.010000,5.226310,12.551878,0.691317,1.658876,1.998646,-0.000000,0.000000
0.010000,5.243099,12.551878,0.708106,1.678863,1.998646,0.000000,0.000000
0.010000,5.260088,12.551878,0.725094,1.698849,1.998646,0.000000,0.000000
0.010000,5.277276,12.551878,0.742283,1.718836,1.998646,-0.000000,0.000000
0.010000,5.294664,12.551878,0.759671,1.738822,1.998646,0.000000,0.000000
0.010000,5.312252,12.551878,0.777259,1.758809,1.998646,0.000000,0.000000
0.010000,5.330040,12.551878,0.795047,1.778795,1.998646,-0.000000,0.000000
0.010000,5.348028,12.551878,0.813035,1.798782,1.998646,0.000000,0.000000
0.010000,5.366216,12.551878,0.831222,1.818768,1.998646,-0.000000,0.000000
0.010000,5.384603,12.551878,0.849610,1.838755,1.998646,0.000000,0.000000
0.010000,5.403191,12.551878,0.868197,1.858741,1.998646,0.000000,0.000000
0.010000,5.421978,12.551878,0.886985,1.878728,1.998646,-0.000000,0.000000
0.010000,5.440965,12.551878,0.905972,1.898714,1.998646,0.000000,0.000000
0.010000,5.460152,12.551878,0.925159,1.918700,1.998646,0.000000,0.000000
0.010000,5.479539,12.551878,0.944546,1.938687,1.998646,-0.000000,0.000000
0.010000,5.499126,12.551878,0.964132,1.958673,1.998646,0.000000,0.000000
0.010000,5.518912,12.551878,0.983919,1.978660,1.998646,0.000000,0.000000
0.010000,5.538899,12.551878,1.003906,1.998646,1.998646,-0.000000,0.000000
0.010000,5.559085,12.551878,1.024092,2.018633,1.998646,0.000000,0.000000
0.010000,5.579471,12.551878,1.044478,2.038619,1.998646,-0.000000,0.000000
0.010000,5.600057,12.551878,1.065064,2.058606,1.998646,-0.000000,0.000000
0.010000,5.620843,12.551878,1.085850,2.078592,1.998646,0.000000,0.000000
0.010000,5.641829,12.551878,1.106836,2.098579,1.998646,-0.000000,0.000000
0.010000,5.663015,12.551878,1.128021,2.118565,1.998646,0.000000,0.000000
0.010000,5.684400,12.551878,1.149407,2.138552,1.998646,0.000000,0.000000
0.010000,5.705985,12.551878,1.170992,2.158538,1.998646,-0.000000,0.000000
0.010000,5.727771,12.551878,1.192778,2.178524,1.998646,0.000000,0.000000
0.010000,5.749756,12.551878,1.214763,2.198511,1.998646,-0.000000,0.000000
0.010000,5.771941,12.551878,1.236948,2.218497,1.998646,0.000000,0.000000
0.010000,5.794326,12.551878,1.259333,2.238484,1.998646,0.000000,0.000000
0.010000,5.816910,12.551878,1.281917,2.258470,1.998646,0.000000,0.000000
0.010000,5.839695,12.551878,1.304702,2.278457,1.998646,-0.000000,0.000000
0.010000,5.862679,12.551878,1.327686,2.298443,1.998646,0.000000,0.000000
0.010000,5.885864,12.551878,1.350871,2.318430,1.998646,0.000000,0.000000
0.010000,5.909248,12.551878,1.374255,2.338416,1.998646,0.000000,0.000000
0.010000,5.932832,12.551878,1.397839,2.358403,1.998646,-0.000000,0.000000
0.010000,5.956616,12.551878,1.421623,2.378389,1.998646,0.000000,0.000000
0.010000,5.980599,12.551878,1.445606,2.398376,1.998646,-0.000000,0.000000
0.010000,6.004783,12.551878,1.469790,2.418362,1.998646,0.000000,0.000000
0.010000,6.029167,12.551878,1.494173,2.438348,1.998646,0.000000,0.000000
0.010000,6.053750,12.551878,1.518757,2.458335,1.998646,0.000000,0.000000
0.010000,6.078533,12.551878,1.543540,2.478321,1.998646,-0.000000,0.000000
0.010000,6.103516,12.551878,1.568523,2.498308,1.998646,0.000000,0.000000
0.010000,6.128699,12.551878,1.593706,2.518294,1.998646,-0.000000,0.000000
0.010000,6.154082,12.551878,1.619089,2.538281,1.998646,0.000000,0.000000
0.010000,6.179665,12.551878,1.644672,2.558267,1.998646,0.000000,0.000000
0.010000,6.205447,12.551878,1.670454,2.578254,1.998646,0.000000,0.000000
0.010000,6.231430,12.551878,1.696436,2.598240,1.998646,0.000000,0.000000
0.010000,6.257612,12.551878,1.722619,2.618227,1.998646,-0.000000,0.000000
0.010000,6.283994,12.551878,1.749001,2.638213,1.998646,0.000000,0.000000
0.010000,6.310576,12.551878,1.775583,2.658200,1.998646,-0.000000,0.000000
0.010000,6.337358,12.551878,1.802365,2.678186,1.998646,0.000000,0.000000
0.010000,6.364340,12.551878,1.829346,2.698172,1.998646,-0.000000,0.000000
0.010000,6.391521,12.551878,1.856528,2.718159,1.998646,0.000000,0.000000
0.010000,6.418903,12.551878,1.883909,2.738145,1.998646,0.000000,0.000000
0.010000,6.446484,12.551878,1.911491,2.758132,1.998646,-0.000000,0.000000
0.010000,6.474265,12.551878,1.939272,2.778118,1.998646,0.000000,0.000000
0.010000,6.502246,12.551878,1.967253,2.798105,1.998646,0.000000,0.000000
0.010000,6.530427,12.551878,1.995434,2.818091,1.998646,-0.000000,0.000000
0.010000,6.558808,12.551878,2.023815,2.838078,1.998646,0.000000,0.000000
0.010000,6.587389,12.551878,2.052395,2.858064,1.998646,0.000000,0.000000
0.010000,6.616169,12.551878,2.081176,2.878051,1.998646,-0.000000,0.000000
0.010000,6.645149,12.551878,2.110156,2.898037,1.998646,0.000000,0.000000
0.010000,6.674330,12.551878,2.139336,2.918024,1.998646,-0.000000,0.000000
0.010000,6.703710,12.551878,2.168717,2.938010,1.998646,0.000000,0.000000
0.010000,6.733290,12.551878,2.198297,2.957997,1.998646,0.000000,0.000000
0.010000,6.763070,12.551878,2.228076,2.977983,1.998646,-0.000000,0.000000
0.010000,6.793049,12.551878,2.258056,2.997969,1.998646,0.000000,0.000000
0.010000,6.823229,12.551878,2.288236,3.017956,1.998646,-0.000000,0.000000
0.010000,6.853608,12.551878,2.318615,3.037942,1.998646,0.000000,0.000000
0.010000,6.884187,12.551878,2.349194,3.057929,1.998646,-0.000000,0.000000
0.010000,6.914967,12.551878,2.379973,3.077915,1.998646,0.000000,0.000000
0.010000,6.945946,12.551878,2.410952,3.097902,1.998646,0.000000,0.000000
0.010000,6.977125,12.551878,2.442131,3.117888,1.998646,0.000000,0.000000
0.010000,7.008503,12.551878,2.473510,3.137875,1.998646,0.000000,0.000000
0.010000,7.040082,12.551878,2.505089,3.157861,1.998646,-0.000000,0.000000
0.010000,7.071860,12.551878,2.536867,3.177848,1.998646,-0.000000,0.000000
0.010000,7.103839,12.551878,2.568846,3.197834,1.998646,0.000000,0.000000
0.010000,7.136017,12.551878,2.601024,3.217821,1.998646,-0.000000,0.000000
0.010000,7.168395,12.551878,2.633402,3.237807,1.998646,0.000000,0.000000
0.010000,7.200973,12.551878,2.665980,3.257793,1.998646,-0.000000,0.000000
0.010000,7.233751,12.551878,2.698758,3.277780,1.998646,0.000000,0.000000
0.010000,7.266728,12.551878,2.731735,3.297766,1.998646,0.000000,0.000000
0.010000,7.299906,12.551878,2.764913,3.317753,1.998646,0.000000,0.000000
0.010000,7.333283,12.551878,2.798290,3.337739,1.998646,-0.000000,0.000000
0.010000,7.366861,12.551878,2.831867,3.357726,1.998646,0.000000,0.000000
0.010000,7.400638,12.551878,2.865645,3.377712,1.998646,-0.000000,0.000000
0.010000,7.434615,12.551878,2.899622,3.397699,1.998646,0.000000,0.000000
0.010000,7.468792,12.551878,2.933798,3.417685,1.998646,0.000000,0.000000
0.010000,7.503168,12.551878,2.968175,3.437672,1.998646,0.000000,0.000000
0.010000,7.537745,12.551878,3.002752,3.457658,1.998646,0.000000,0.000000
0.010000,7.572521,12.551878,3.037528,3.477645,1.998646,-0.000000,0.000000
0.010000,7.607498,12.551878,3.072504,3.497631,1.998646,0.000000,0.000000
0.010000,7.642674,12.551878,3.107681,3.517617,1.998646,-0.000000,0.000000
0.010000,7.678050,12.551878,3.143057,3.537604,1.998646,0.000000,0.000000
0.010000,7.713626,12.551878,3.178633,3.557590,1.998646,0.000000,0.000000
0.010000,7.749401,12.551878,3.214408,3.577577,1.998646,0.000000,0.000000
0.010000,7.785377,12.551878,3.250384,3.597563,1.998646,-0.000000,0.000000
0.010000,7.821553,12.551878,3.286559,3.617550,1.998646,-0.000000,0.000000
0.010000,7.857928,12.551878,3.322935,3.637536,1.998646,0.000000,0.000000
0.010000,7.894503,12.551878,3.359510,3.657523,1.998646,-0.000000,0.000000
0.010000,7.931278,12.551878,3.396285,3.677509,1.998646,-0.000000,0.000000
0.010000,7.968253,12.551878,3.433260,3.697496,1.998646,0.000000,0.000000
0.010000,8.005428,12.551878,3.470435,3.717482,1.998646,-0.000000,0.000000
0.010000,8.042803,12.551878,3.507810,3.737469,1.998646,0.000000,0.000000
0.010000,8.080377,12.551878,3.545384,3.757455,1.998646,0.000000,0.000000
0.010000,8.118152,12.551878,3.583159,3.777441,1.998646,-0.000000,0.000000
0.010000,8.156126,12.551878,3.621133,3.797428,1.998646,0.000000,0.000000
0.010000,8.194300,12.551878,3.659307,3.817414,1.998646,-0.000000,0.000000
0.010000,8.232674,12.551878,3.697681,3.837401,1.998646,0.000000,0.000000
0.010000,8.271248,12.551878,3.736255,3.857387,1.998646,0.000000,0.000000
0.010000,8.310022,12.551878,3.775029,3.877374,1.998646,-0.000000,0.000000
0.010000,8.348995,12.551878,3.814002,3.897360,1.998646,0.000000,0.000000
0.010000,8.388169,12.551878,3.853176,3.917347,1.998646,-0.000000,0.000000
0.010000,8.427542,12.551878,3.892549,3.937333,1.998646,0.000000,0.000000
0.010000,8.467115,12.551878,3.932122,3.957320,1.998646,-0.000000,0.000000
0.010000,8.506888,12.551878,3.971895,3.977306,1.998646,-0.000000,0.000000
0.010000,8.546861,12.551878,4.011868,3.997293,1.998646,0.000000,0.000000
0.010000,8.587034,12.551878,4.052041,4.017279,1.998646,-0.000000,0.000000
0.010000,8.627407,12.551878,4.092414,4.037266,1.998646,0.000000,0.000000
0.010000,8.667979,12.551878,4.132986,4.057252,1.998646,0.000000,0.000000
0.010000,8.708752,12.551878,4.173759,4.077238,1.998646,0.000000,0.000000
0.010000,8.749724,12.551878,4.214731,4.097225,1.998646,0.000000,0.000000
0.010000,8.790896,12.551878,4.255903,4.117211,1.998646,0.000000,0.000000
0.010000,8.832268,12.551878,4.297275,4.137198,1.998646,-0.000000,0.000000
0.010000,8.873840,12.551878,4.338847,4.157184,1.998646,0.000000,0.000000
0.010000,8.915612,12.551878,4.380618,4.177171,1.998646,-0.000000,0.000000
0.010000,8.957583,12.551878,4.422590,4.197157,1.998646,0.000000,0.000000
0.010000,8.999755,12.551878,4.464761,4.217144,1.998646,0.000000,0.000000
0.010000,9.042126,12.551878,4.507133,4.237130,1.998646,0.000000,0.000000
0.010000,9.084697,12.551878,4.549704,4.257117,1.998646,0.000000,0.000000
0.010000,9.127468,12.551878,4.592475,4.277103,1.998646,-0.000000,0.000000
0.010000,9.170439,12.551878,4.635446,4.297090,1.998646,0.000000,0.000000
0.010000,9.213610,12.551878,4.678617,4.317076,1.998646,-0.000000,0.000000
0.010000,9.256980,12.551878,4.721987,4.337062,1.998646,0.000000,0.000000
0.010000,9.300551,12.551878,4.765558,4.357049,1.998646,-0.000000,0.000000
0.010000,9.344321,12.551878,4.809328,4.377035,1.998646,0.000000,0.000000
0.010000,9.388291,12.551878,4.853298,4.397022,1.998646,-0.000000,0.000000
0.010000,9.432462,12.551878,4.897468,4.417008,1.998646,0.000000,0.000000
0.010000,9.476831,12.551878,4.941838,4.436995,1.998646,-0.000000,0.000000
0.010000,9.521401,12.551878,4.986408,4.456981,1.998646,0.000000,0.000000
0.010000,9.566171,12.551878,5.031178,4.476968,1.998646,-0.000000,0.000000
0.010000,9.611140,12.551878,5.076147,4.496954,1.998646,0.000000,0.000000
0.010000,9.656310,12.551878,5.121317,4.516941,1.998646,0.000000,0.000000
0.010000,9.701679,12.551878,5.166686,4.536927,1.998646,-0.000000,0.000000
0.010000,9.747248,12.551878,5.212255,4.556914,1.998646,0.000000,0.000000
0.010000,9.793017,12.551878,5.258024,4.576900,1.998646,-0.000000,0.000000
0.010000,9.838986,12.551878,5.303993,4.596886,1.998646,0.000000,0.000000
0.010000,9.885155,12.551878,5.350162,4.616873,1.998646,0.000000,0.000000
0.010000,9.931523,12.551878,5.396530,4.636859,1.998646,0.000000,0.000000
0.010000,9.978092,12.551878,5.443099,4.656846,1.998646,-0.000000,0.000000
0.010000,10.024860,12.551878,5.489867,4.676832,1.998646,0.000000,0.000000
0.010000,10.062152,12.551890,5.527159,3.729194,-94.763829,-9676.247500,0.001519
0.010000,10.105641,12.552044,5.570648,4.348916,61.972149,15673.597738,0.005540
0.010000,10.149351,12.552374,5.614359,4.371101,2.218525,-5975.362370,0.009536
0.010000,10.193282,12.552880,5.658293,4.393363,2.226210,0.768533,0.013508
0.010000,10.237433,12.553564,5.702450,4.415710,2.234714,0.850326,0.017454
0.010000,10.281806,12.554426,5.746831,4.438148,2.243788,0.907441,0.021373
0.010000,10.326401,12.555466,5.791438,4.460665,2.251714,0.792611,0.025264
0.010000,10.371217,12.556685,5.836271,4.483262,2.259672,0.795744,0.029127
0.010000,10.416255,12.558084,5.881330,4.505941,2.267973,0.830152,0.032961
0.010000,10.461514,12.559663,5.926617,4.528704,2.276220,0.824663,0.036764
0.010000,10.506996,12.561422,5.972133,4.551548,2.284412,0.819260,0.040536
0.010000,10.552699,12.563361,6.017877,4.574473,2.292552,0.813936,0.044276
0.010000,10.598625,12.565481,6.063852,4.597480,2.300638,0.808678,0.047983
0.010000,10.644774,12.567782,6.110058,4.620566,2.308673,0.803481,0.051656
0.010000,10.691144,12.570265,6.156495,4.643733,2.316657,0.798336,0.055294
0.010000,10.737738,12.572928,6.203165,4.666979,2.324589,0.793235,0.058896
0.010000,10.784555,12.575773,6.250068,4.690304,2.332471,0.788175,0.062462
0.010000,10.831595,12.578798,6.297205,4.713707,2.340302,0.783149,0.065991
0.010000,10.878858,12.582005,6.344577,4.737187,2.348084,0.778154,0.069482
0.010000,10.926345,12.585392,6.392184,4.760746,2.355816,0.773185,0.072933
0.010000,10.974055,12.588960,6.440028,4.784381,2.363529,0.771330,0.076345
0.010000,11.021990,12.592708,6.488109,4.808095,2.371457,0.792820,0.079716
0.010000,11.070149,12.596636,6.536428,4.831882,2.378687,0.722960,0.083045
0.010000,11.118532,12.600744,6.584985,4.855744,2.386215,0.752783,0.086332
0.010000,11.167140,12.605030,6.633782,4.879682,2.393722,0.750728,0.089576
0.010000,11.215974,12.609496,6.682819,4.903696,2.401432,0.771002,0.092776
0.010000,11.265032,12.614138,6.732097,4.927781,2.408453,0.702112,0.095931
0.010000,11.314262,12.618953,6.781561,4.946445,1.866411,-54.204233,0.099037
0.010000,11.363514,12.623923,6.831063,4.950201,0.375592,-149.081834,0.102084
0.010000,11.412654,12.629031,6.880469,4.940515,-0.968581,-134.417302,0.105064
0.010000,11.461643,12.634269,6.929737,4.926818,-1.369717,-40.113594,0.107976
0.010000,11.510480,12.639634,6.978867,4.913070,-1.374783,-0.506662,0.110820
0.010000,11.559165,12.645120,7.027860,4.899268,-1.380141,-0.535764,0.113596
0.010000,11.607696,12.650723,7.076714,4.885414,-1.385436,-0.529511,0.116305
0.010000,11.656075,12.656441,7.125429,4.871506,-1.390807,-0.537066,0.118947
0.010000,11.704299,12.662267,7.174005,4.857543,-1.396263,-0.545578,0.121524
0.010000,11.752370,12.668199,7.222440,4.843526,-1.401775,-0.551280,0.124035
0.010000,11.800286,12.674233,7.270735,4.829452,-1.407321,-0.554585,0.126482
0.010000,11.848047,12.680365,7.318888,4.815323,-1.412914,-0.559252,0.128865
0.010000,11.895653,12.686590,7.366899,4.801138,-1.418546,-0.563258,0.131184
0.010000,11.943104,12.692905,7.414768,4.786896,-1.424213,-0.566644,0.133441
0.010000,11.990399,12.699307,7.462494,4.772597,-1.429907,-0.569452,0.135635
0.010000,12.037537,12.705792,7.510076,4.758240,-1.435624,-0.571723,0.137768
0.010000,12.084519,12.712355,7.557515,4.743827,-1.441359,-0.573494,0.139840
0.010000,12.131344,12.718995,7.604808,4.729356,-1.447107,-0.574803,0.141852
0.010000,12.178012,12.725706,7.651957,4.714827,-1.452864,-0.575686,0.143804
0.010000,12.224523,12.732486,7.698959,4.700241,-1.458626,-0.576177,0.145697
0.010000,12.270877,12.739332,7.745815,4.685597,-1.464389,-0.576308,0.147532
0.010000,12.317072,12.746239,7.792524,4.670895,-1.470150,-0.576111,0.149308
0.010000,12.363109,12.753205,7.839085,4.656136,-1.475906,-0.575615,0.151028
0.010000,12.408988,12.760226,7.885498,4.641320,-1.481655,-0.574848,0.152692
0.010000,12.454709,12.767300,7.931763,4.626446,-1.487421,-0.576589,0.154299
0.010000,12.500270,12.774423,7.977878,4.611513,-1.493264,-0.584304,0.155851
0.010000,12.545673,12.781592,8.023843,4.596524,-1.498853,-0.558964,0.157349
0.010000,12.590917,12.788804,8.069658,4.581479,-1.504548,-0.569408,0.158792
0.010000,12.636001,12.796056,8.115322,4.566376,-1.510291,-0.574303,0.160182
0.010000,12.680926,12.803345,8.160834,4.551215,-1.516064,-0.577382,0.161520
0.010000,12.725691,12.810669,8.206194,4.536000,-1.521534,-0.546939,0.162805
0.010000,12.770295,12.818024,8.251401,4.520728,-1.527247,-0.571295,0.164039
0.010000,12.814740,12.825408,8.296455,4.505398,-1.532935,-0.568799,0.165222
0.010000,12.859025,12.832818,8.341355,4.490015,-1.538312,-0.537757,0.166354
0.010000,12.903149,12.840252,8.386101,4.474574,-1.544143,-0.583102,0.167437
0.010000,12.947112,12.847706,8.430692,4.459080,-1.549407,-0.526419,0.168471
0.010000,12.990914,12.855178,8.475127,4.443528,-1.555114,-0.570656,0.169457
0.010000,13.034556,12.862666,8.519406,4.427924,-1.560412,-0.529768,0.170394
0.010000,13.078036,12.870168,8.563529,4.412264,-1.566036,-0.562390,0.171284
0.010000,13.121355,12.877680,8.607495,4.396552,-1.571228,-0.519192,0.172128
0.010000,13.164513,12.885201,8.651302,4.380783,-1.576893,-0.566582,0.172925
0.010000,13.207508,12.892728,8.694952,4.364963,-1.581990,-0.509664,0.173677
0.010000,13.250342,12.900258,8.738443,4.349089,-1.587420,-0.542968,0.174384
0.010000,13.293014,12.907791,8.781775,4.333161,-1.592744,-0.532429,0.175046
0.010000,13.335524,12.915323,8.824946,4.317182,-1.597897,-0.515290,0.175665
0.010000,13.377871,12.922852,8.867958,4.301150,-1.603174,-0.527726,0.176240
0.010000,13.420056,12.930376,8.910809,4.285066,-1.608430,-0.525596,0.176773
0.010000,13.462078,12.937894,8.953498,4.268931,-1.613495,-0.506498,0.177264
0.010000,13.503938,12.945402,8.996025,4.252745,-1.618634,-0.513891,0.177713
0.010000,13.545634,12.952900,9.038390,4.236507,-1.623738,-0.510385,0.178122
0.010000,13.587167,12.960385,9.080593,4.220219,-1.628847,-0.510913,0.178489
0.010000,13.628537,12.967856,9.122631,4.203881,-1.633837,-0.499012,0.178817
0.010000,13.669743,12.975310,9.164506,4.187492,-1.638826,-0.498852,0.179106
0.010000,13.710785,12.982746,9.206217,4.171054,-1.643794,-0.496836,0.179356
0.010000,13.751664,12.990162,9.247763,4.154567,-1.648729,-0.493498,0.179567
0.010000,13.792378,12.997557,9.289143,4.138031,-1.653631,-0.490207,0.179741
0.010000,13.832928,13.004928,9.330357,4.121446,-1.658501,-0.486969,0.179878
0.010000,13.873313,13.012274,9.371405,4.104812,-1.663339,-0.483786,0.179978
0.010000,13.913534,13.019593,9.412287,4.088131,-1.668145,-0.480661,0.180042
0.010000,13.953590,13.026885,9.453001,4.071402,-1.672921,-0.477597,0.180071
0.010000,13.993481,13.034146,9.493547,4.054625,-1.677667,-0.474595,0.180064
0.010000,14.033206,13.041377,9.533925,4.037801,-1.682384,-0.471657,0.180023
0.010000,14.072766,13.048575,9.574134,4.020931,-1.687071,-0.468782,0.179947
0.010000,14.112160,13.055740,9.614174,4.004013,-1.691731,-0.465972,0.179838
0.010000,14.151388,13.062869,9.654045,3.987050,-1.696337,-0.460568,0.179697
0.010000,14.190449,13.069961,9.693745,3.970040,-1.700949,-0.461253,0.179522
0.010000,14.229345,13.077015,9.733275,3.952985,-1.705528,-0.457886,0.179316
0.010000,14.268073,13.084031,9.772634,3.935884,-1.710079,-0.455123,0.179078
0.010000,14.306635,13.091006,9.811821,3.918739,-1.714571,-0.449187,0.178809
0.010000,14.345029,13.097939,9.850837,3.901548,-1.719039,-0.446806,0.178509
0.010000,14.383256,13.104830,9.889680,3.884313,-1.723557,-0.451748,0.178179
0.010000,14.421316,13.111677,9.928350,3.867033,-1.727976,-0.441932,0.177820
0.010000,14.459207,13.118480,9.966847,3.849710,-1.732313,-0.433726,0.177432
0.010000,14.496930,13.125236,10.005171,3.832342,-1.736812,-0.449905,0.177015
0.010000,14.534485,13.131946,10.043320,3.814931,-1.741067,-0.425402,0.176570
0.010000,14.571871,13.138607,10.081295,3.797476,-1.745456,-0.438914,0.176097
0.010000,14.609088,13.145220,10.119095,3.779979,-1.749764,-0.430802,0.175597
0.010000,14.646135,13.151783,10.156719,3.762439,-1.753998,-0.423479,0.175070
0.010000,14.683013,13.158296,10.194168,3.744856,-1.758326,-0.432796,0.174517
0.010000,14.719721,13.164757,10.231440,3.727231,-1.762495,-0.416855,0.173938
0.010000,14.756259,13.171166,10.268536,3.709563,-1.766744,-0.424909,0.173334
0.010000,14.792626,13.177522,10.305454,3.691853,-1.770964,-0.421966,0.172705
0.010000,14.828823,13.183824,10.342195,3.674103,-1.775007,-0.404362,0.172052
0.010000,14.864848,13.190072,10.378758,3.656310,-1.779327,-0.432004,0.171374
0.010000,14.900702,13.196264,10.415143,3.638477,-1.783295,-0.396763,0.170673
0.010000,14.936384,13.202401,10.451349,3.620603,-1.787438,-0.414256,0.169949
0.010000,14.971894,13.208481,10.487376,3.602687,-1.791597,-0.415923,0.169202
0.010000,15.007232,13.214504,10.523223,3.584731,-1.795584,-0.398748,0.168433
0.010000,15.042397,13.220469,10.558891,3.566736,-1.799534,-0.394996,0.167643
0.010000,15.077389,13.226376,10.594378,3.548699,-1.803678,-0.414344,0.166831
0.010000,15.112207,13.232225,10.629684,3.530622,-1.807660,-0.398228,0.165998
0.010000,15.146852,13.238014,10.664809,3.512506,-1.811622,-0.396206,0.165145
0.010000,15.181323,13.243744,10.699752,3.494351,-1.815526,-0.390425,0.164271
0.010000,15.215619,13.249413,10.734514,3.476157,-1.819427,-0.390024,0.163379
0.010000,15.249740,13.255022,10.769093,3.457922,-1.823409,-0.398285,0.162467
0.010000,15.283686,13.260570,10.803490,3.439650,-1.827295,-0.388581,0.161536
0.010000,15.317457,13.266057,10.837703,3.421338,-1.831162,-0.386717,0.160587
0.010000,15.351051,13.271482,10.871733,3.402988,-1.835011,-0.384875,0.159620
0.010000,15.384470,13.276845,10.905579,3.384599,-1.838842,-0.383050,0.158635
0.010000,15.417711,13.282146,10.939241,3.366173,-1.842654,-0.381238,0.157634
0.010000,15.450776,13.287384,10.972718,3.347708,-1.846448,-0.379433,0.156616
0.010000,15.483663,13.292560,11.006010,3.329206,-1.850225,-0.377632,0.155582
0.010000,15.516373,13.297673,11.039116,3.310666,-1.853983,-0.375827,0.154531
0.010000,15.548904,13.302723,11.072037,3.292089,-1.857723,-0.374015,0.153466
0.010000,15.581257,13.307710,11.104772,3.273475,-1.861383,-0.366009,0.152385
0.010000,15.613431,13.312633,11.137320,3.254824,-1.865082,-0.369932,0.151290
0.010000,15.645425,13.317492,11.169682,3.236136,-1.868820,-0.373710,0.150181
0.010000,15.677240,13.322288,11.201856,3.217411,-1.872487,-0.366775,0.149058
0.010000,15.708874,13.327021,11.233842,3.198650,-1.876136,-0.364867,0.147921
0.010000,15.740328,13.331689,11.265641,3.179853,-1.879653,-0.351719,0.146772
0.010000,15.771601,13.336294,11.297251,3.161020,-1.883291,-0.363768,0.145610
0.010000,15.802693,13.340835,11.328673,3.142151,-1.886960,-0.366903,0.144435
0.010000,15.833603,13.345312,11.359905,3.123246,-1.890469,-0.350922,0.143249
0.010000,15.864330,13.349725,11.390948,3.104307,-1.893919,-0.345022,0.142052
0.010000,15.894876,13.354075,11.421801,3.085331,-1.897613,-0.369377,0.140843
0.010000,15.925238,13.358361,11.452465,3.066321,-1.900978,-0.336500,0.139624
0.010000,15.955417,13.362583,11.482937,3.047276,-1.904523,-0.354442,0.138394
0.010000,15.985412,13.366742,11.513219,3.028196,-1.908011,-0.348863,0.137155
0.010000,16.015222,13.370838,11.543310,3.009082,-1.911369,-0.335828,0.135906
0.010000,16.044848,13.374870,11.573209,2.989933,-1.914905,-0.353595,0.134648
0.010000,16.074290,13.378840,11.602917,2.970751,-1.918199,-0.329386,0.133381
0.010000,16.103545,13.382746,11.632432,2.951534,-1.921674,-0.347475,0.132105
0.010000,16.132615,13.386590,11.661755,2.932284,-1.924991,-0.331713,0.130822
0.010000,16.161499,13.390371,11.690885,2.913001,-1.928333,-0.334218,0.129531
0.010000,16.190196,13.394090,11.719822,2.893684,-1.931713,-0.338011,0.128232
0.010000,16.218705,13.397748,11.748565,2.874335,-1.934915,-0.320167,0.126927
0.010000,16.247027,13.401343,11.777115,2.854952,-1.938281,-0.336623,0.125615
0.010000,16.275162,13.404877,11.805470,2.835537,-1.941531,-0.324995,0.124297
0.010000,16.303108,13.408350,11.833631,2.816089,-1.944732,-0.320093,0.122973
0.010000,16.330865,13.411762,11.861597,2.796609,-1.947982,-0.325019,0.121643
0.010000,16.358433,13.415113,11.889368,2.777098,-1.951177,-0.319487,0.120308
0.010000,16.385811,13.418404,11.916944,2.757554,-1.954346,-0.316858,0.118968
0.010000,16.413000,13.421636,11.944324,2.737979,-1.957502,-0.315651,0.117624
0.010000,16.439998,13.424808,11.971507,2.718373,-1.960642,-0.313988,0.116276
0.010000,16.466805,13.427921,11.998495,2.698735,-1.963746,-0.310375,0.114924
0.010000,16.493421,13.430975,12.025285,2.679067,-1.966832,-0.308636,0.113568
0.010000,16.519845,13.433971,12.051879,2.659368,-1.969898,-0.306524,0.112209
0.010000,16.546078,13.436908,12.078275,2.639639,-1.972941,-0.304360,0.110848
0.010000,16.572118,13.439789,12.104474,2.619879,-1.975963,-0.302139,0.109484
0.010000,16.597965,13.442612,12.130475,2.600089,-1.978961,-0.299857,0.108117
0.010000,16.623619,13.445379,12.156278,2.580270,-1.981936,-0.297512,0.106749
0.010000,16.649079,13.448090,12.181882,2.560421,-1.984887,-0.295100,0.105380
0.010000,16.674345,13.450745,12.207287,2.540543,-1.987813,-0.292616,0.104009
0.010000,16.699417,13.453344,12.232494,2.520636,-1.990714,-0.290057,0.102638
0.010000,16.724295,13.455889,12.257501,2.500700,-1.993588,-0.287419,0.101265
0.010000,16.748977,13.458380,12.282308,2.480736,-1.996435,-0.284698,0.099893
0.010000,16.773463,13.460818,12.306916,2.460743,-1.999254,-0.281891,0.098521
0.010000,16.797753,13.463202,12.331323,2.440721,-2.002193,-0.293924,0.097149
0.010000,16.821848,13.465533,12.355530,2.420672,-2.004886,-0.269251,0.095778
0.010000,16.845745,13.467813,12.379535,2.400596,-2.007592,-0.270613,0.094407
0.010000,16.869446,13.470040,12.403340,2.380493,-2.010296,-0.270394,0.093038
0.010000,16.892949,13.472217,12.426944,2.360362,-2.013146,-0.285000,0.091671
0.010000,16.916254,13.474344,12.450346,2.340204,-2.015845,-0.269952,0.090305
0.010000,16.939361,13.476420,12.473546,2.320021,-2.018292,-0.244620,0.088942
0.010000,16.962270,13.478447,12.496544,2.299810,-2.021073,-0.278158,0.087581
0.010000,16.984979,13.480426,12.519340,2.279572,-2.023797,-0.272354,0.086223
0.010000,17.007490,13.482356,12.541933,2.259312,-2.026008,-0.221142,0.084868
0.010000,17.029801,13.484239,12.564323,2.239021,-2.029084,-0.307543,0.083516
0.010000,17.051912,13.486075,12.586511,2.218710,-2.031137,-0.205331,0.082167
0.010000,17.073822,13.487865,12.608494,2.198370,-2.033959,-0.282247,0.080823
0.010000,17.095533,13.489609,12.630274,2.178008,-2.036231,-0.227121,0.079483
0.010000,17.117042,13.491307,12.651850,2.157619,-2.038874,-0.264298,0.078147
0.010000,17.138350,13.492962,12.673223,2.137209,-2.041034,-0.216006,0.076815
0.010000,17.159456,13.494572,12.694390,2.116770,-2.043864,-0.283036,0.075489
0.010000,17.180361,13.496139,12.715353,2.096314,-2.045619,-0.175453,0.074168
0.010000,17.201063,13.497664,12.736112,2.075827,-2.048723,-0.310400,0.072852
0.010000,17.221562,13.499146,12.756665,2.055322,-2.050471,-0.174840,0.071542
0.010000,17.241859,13.500588,12.777013,2.034795,-2.052675,-0.220402,0.070238
0.010000,17.261953,13.501988,12.797155,2.014238,-2.055720,-0.304545,0.068940
0.010000,17.281843,13.503349,12.817092,1.993665,-2.057253,-0.153265,0.067648
0.010000,17.301530,13.504670,12.836823,1.973071,-2.059487,-0.223367,0.066363
0.010000,17.321012,13.505952,12.856347,1.952452,-2.061852,-0.236559,0.065085
0.010000,17.340290,13.507196,12.875665,1.931809,-2.064346,-0.249349,0.063814
0.010000,17.359363,13.508403,12.894777,1.911148,-2.066035,-0.168970,0.062551
0.010000,17.378232,13.509573,12.913681,1.890466,-2.068172,-0.213677,0.061295
0.010000,17.396895,13.510707,12.932379,1.869764,-2.070280,-0.210821,0.060047
0.010000,17.415353,13.511805,12.950869,1.849040,-2.072359,-0.207901,0.058807
0.010000,17.433605,13.512868,12.969152,1.828296,-2.074409,-0.204917,0.057575
0.010000,17.451651,13.513897,12.987228,1.807532,-2.076427,-0.201868,0.056352
0.010000,17.469490,13.514893,13.005095,1.786748,-2.078415,-0.198751,0.055138
0.010000,17.487124,13.515855,13.022755,1.765944,-2.080383,-0.196840,0.053932
0.010000,17.504550,13.516786,13.040206,1.745121,-2.082268,-0.188497,0.052736
0.010000,17.521769,13.517684,13.057449,1.724279,-2.084196,-0.192809,0.051549
0.010000,17.538781,13.518552,13.074483,1.703419,-2.086040,-0.184325,0.050371
0.010000,17.555586,13.519389,13.091308,1.682540,-2.087861,-0.182132,0.049203
0.010000,17.572183,13.520197,13.107925,1.661644,-2.089647,-0.178593,0.048046
0.010000,17.588572,13.520976,13.124332,1.640730,-2.091397,-0.174980,0.046898
0.010000,17.604752,13.521726,13.140530,1.619799,-2.093110,-0.171293,0.045761
0.010000,17.620724,13.522448,13.156518,1.598851,-2.094785,-0.167531,0.044634
0.010000,17.636488,13.523143,13.172297,1.577886,-2.096508,-0.172326,0.043518
0.010000,17.652042,13.523812,13.187866,1.556896,-2.098952,-0.244346,0.042412
0.010000,17.667388,13.524455,13.203225,1.535899,-2.099728,-0.077597,0.041318
0.010000,17.682524,13.525073,13.218374,1.514886,-2.101252,-0.152451,0.040235
0.010000,17.697451,13.525665,13.233313,1.493854,-2.103232,-0.198035,0.039164
0.010000,17.712168,13.526234,13.248041,1.472802,-2.105234,-0.200124,0.038104
0.010000,17.726675,13.526780,13.262558,1.451744,-2.105752,-0.051872,0.037056
0.010000,17.740972,13.527302,13.276865,1.430664,-2.107984,-0.223186,0.036020
0.010000,17.755059,13.527803,13.290960,1.409569,-2.109560,-0.157575,0.034996
0.010000,17.768936,13.528282,13.304845,1.388469,-2.109997,-0.043721,0.033984
0.010000,17.782601,13.528739,13.318518,1.367335,-2.113332,-0.333525,0.032984
0.010000,17.796056,13.529177,13.331981,1.346210,-2.112542,0.079082,0.031997
0.010000,17.809300,13.529594,13.345231,1.325050,-2.116050,-0.350831,0.031023
0.010000,17.822333,13.529992,13.358270,1.303897,-2.115259,0.079098,0.030062
0.010000,17.835154,13.530372,13.371097,1.282708,-2.118935,-0.367595,0.029114
0.010000,17.847765,13.530733,13.383712,1.261527,-2.118025,0.091030,0.028179
0.010000,17.860163,13.531077,13.396115,1.240317,-2.120997,-0.297206,0.027257
0.010000,17.872350,13.531404,13.408307,1.219104,-2.121356,-0.035897,0.026348
0.010000,17.884324,13.531714,13.420285,1.197882,-2.122174,-0.081872,0.025454
0.010000,17.896087,13.532008,13.432052,1.176630,-2.125217,-0.304301,0.024573
0.010000,17.907638,13.532287,13.443605,1.155383,-2.124646,0.057131,0.023705
0.010000,17.918976,13.532551,13.454947,1.134124,-2.125918,-0.127222,0.022852
0.010000,17.930101,13.532801,13.466075,1.112843,-2.128157,-0.223880,0.022013
0.010000,17.941014,13.533036,13.476991,1.091555,-2.128736,-0.057863,0.021188
0.010000,17.951715,13.533259,13.487693,1.070261,-2.129435,-0.069978,0.020377
0.010000,17.962202,13.533468,13.498183,1.048955,-2.130583,-0.114724,0.019581
0.010000,17.972477,13.533665,13.508459,1.027638,-2.131699,-0.111591,0.018799
0.010000,17.982538,13.533851,13.518522,1.006306,-2.133235,-0.153687,0.018032
0.010000,17.992386,13.534025,13.528372,0.984965,-2.134056,-0.082068,0.017280
0.010000,18.002021,13.534188,13.538008,0.963618,-2.134714,-0.065814,0.016542
0.010000,18.011442,13.534340,13.547431,0.942261,-2.135697,-0.098278,0.015820
0.010000,18.020650,13.534482,13.556640,0.920895,-2.136647,-0.094950,0.015113
0.010000,18.029644,13.534615,13.565635,0.899519,-2.137562,-0.091585,0.014421
0.010000,18.038425,13.534739,13.574416,0.878135,-2.138444,-0.088183,0.013744
0.010000,18.046991,13.534854,13.582984,0.856742,-2.139292,-0.084745,0.013082
0.010000,18.055344,13.534960,13.591337,0.835341,-2.140104,-0.081271,0.012436
0.010000,18.063483,13.535059,13.599476,0.813932,-2.140882,-0.077763,0.011806
0.010000,18.071408,13.535150,13.607402,0.792516,-2.141624,-0.074220,0.011191
0.010000,18.079118,13.535234,13.615112,0.771087,-2.142832,-0.120788,0.010592
0.010000,18.086614,13.535311,13.622609,0.749651,-2.143589,-0.075670,0.010009
0.010000,18.093896,13.535382,13.629891,0.728213,-2.143820,-0.023124,0.009441
0.010000,18.100963,13.535447,13.636959,0.706769,-2.144421,-0.060142,0.008890
0.010000,18.107816,13.535506,13.643812,0.685319,-2.144986,-0.056439,0.008355
0.010000,18.114454,13.535560,13.650450,0.663856,-2.146281,-0.129508,0.007835
0.010000,18.120878,13.535609,13.656874,0.642384,-2.147218,-0.093693,0.007332
0.010000,18.127087,13.535653,13.663084,0.620917,-2.146659,0.055895,0.006845
0.010000,18.133081,13.535692,13.669078,0.599445,-2.147227,-0.056828,0.006375
0.010000,18.138861,13.535728,13.674857,0.577947,-2.149838,-0.261090,0.005921
0.010000,18.144425,13.535759,13.680422,0.556467,-2.148013,0.182516,0.005483
0.010000,18.149775,13.535788,13.685772,0.534973,-2.149408,-0.139503,0.005062
0.010000,18.154910,13.535813,13.690906,0.513467,-2.150609,-0.120083,0.004657
0.010000,18.159829,13.535835,13.695826,0.491974,-2.149215,0.139338,0.004269
0.010000,18.164534,13.535854,13.700531,0.470449,-2.152546,-0.333014,0.003897
0.010000,18.169023,13.535871,13.705020,0.448953,-2.149621,0.292436,0.003542
0.010000,18.173297,13.535885,13.709294,0.427417,-2.153566,-0.394463,0.003204
0.010000,18.177357,13.535897,13.713354,0.405912,-2.150553,0.301281,0.002883
0.010000,18.181200,13.535908,13.717197,0.384372,-2.153915,-0.336190,0.002578
0.010000,18.184829,13.535917,13.720826,0.362852,-2.152027,0.188812,0.002291
0.010000,18.188242,13.535924,13.724239,0.341319,-2.153310,-0.128337,0.002020
0.010000,18.191440,13.535930,13.727437,0.319778,-2.154147,-0.083647,0.001766
0.010000,18.194422,13.535935,13.730419,0.298248,-2.152956,0.119087,0.001529
0.010000,18.197189,13.535939,13.733186,0.276702,-2.154615,-0.165955,0.001309
0.010000,18.199741,13.535942,13.735738,0.255154,-2.154788,-0.017264,0.001106
0.010000,18.202077,13.535944,13.738074,0.233614,-2.154044,0.074393,0.000921
0.010000,18.204198,13.535946,13.740195,0.212069,-2.154402,-0.035818,0.000752
0.010000,18.206103,13.535947,13.742100,0.190510,-2.155922,-0.151988,0.000600
0.010000,18.207792,13.535948,13.743789,0.168958,-2.155265,0.065696,0.000466
0.010000,18.209266,13.535949,13.745263,0.147407,-2.155096,0.016870,0.000348
0.010000,18.210525,13.535949,13.746522,0.125853,-2.155323,-0.022668,0.000248
0.010000,18.211568,13.535949,13.747565,0.104298,-2.155517,-0.019364,0.000165
0.010000,18.212395,13.535950,13.748392,0.082741,-2.155677,-0.016055,0.000099
0.010000,18.213007,13.535950,13.749004,0.061183,-2.155805,-0.012741,0.000050
0.010000,18.213403,13.535950,13.749400,0.039624,-2.155899,-0.009424,0.000019
0.010000,18.213593,13.535950,13.749590,0.018939,-2.068584,8.731471,0.000004
0.010000,18.213638,13.535950,13.749635,0.004516,-1.442238,62.634606,6.283185
0.010000,18.213638,13.535950,13.749635,0.000000,-0.451623,99.061564,6.283185
