dt,x,y,position,velocity,acceleration,jerk,heading
0.020000,0.303535,9.570328,0.000400,0.040000,2.000000,100.000000,0.000314
0.020000,0.303535,9.570328,0.001600,0.080000,2.000000,0.000000,0.000281
0.020000,0.303535,9.570328,0.003600,0.120000,2.000000,-0.000000,0.000227
0.020000,0.303535,9.570328,0.006400,0.160000,2.000000,0.000000,0.000151
0.020000,0.303535,9.570328,0.010000,0.200000,2.000000,0.000000,0.000054
0.020000,0.305957,9.570328,0.014400,0.240000,2.000000,-0.000000,6.283120
0.020000,0.311157,9.570327,0.019600,0.280000,2.000000,0.000000,6.282980
0.020000,0.317157,9.570325,0.025600,0.320000,2.000000,-0.000000,6.282818
0.020000,0.323957,9.570322,0.032400,0.360000,2.000000,0.000000,6.282636
0.020000,0.331557,9.570317,0.040000,0.400000,2.000000,0.000000,6.282433
0.020000,0.339957,9.570310,0.048400,0.440000,2.000000,-0.000000,6.282209
0.020000,0.349157,9.570300,0.057600,0.480000,2.000000,0.000000,6.281965
0.020000,0.359157,9.570286,0.067600,0.520000,2.000000,0.000000,6.281702
0.020000,0.369957,9.570269,0.078400,0.560000,2.000000,0.000000,6.281418
0.020000,0.381557,9.570247,0.090000,0.600000,2.000000,0.000000,6.281116
0.020000,0.393957,9.570219,0.102400,0.640000,2.000000,-0.000000,6.280794
0.020000,0.407157,9.570185,0.115600,0.680000,2.000000,0.000000,6.280454
0.020000,0.421157,9.570144,0.129600,0.720000,2.000000,0.000000,6.280096
0.020000,0.435957,9.570096,0.144400,0.760000,2.000000,0.000000,6.279721
0.020000,0.451557,9.570039,0.160000,0.800000,2.000000,0.000000,6.279328
0.020000,0.467956,9.569972,0.176400,0.840000,2.000000,0.000000,6.278918
0.020000,0.485156,9.569895,0.193600,0.880000,2.000000,-0.000000,6.278492
0.020000,0.503156,9.569807,0.211600,0.920000,2.000000,0.000000,6.278051
0.020000,0.521956,9.569706,0.230400,0.960000,2.000000,0.000000,6.277595
0.020000,0.541555,9.569592,0.250000,1.000000,2.000000,0.000000,6.277124
0.020000,0.561955,9.569463,0.270400,1.040000,2.000000,0.000000,6.276639
0.020000,0.583155,9.569319,0.291600,1.080000,2.000000,0.000000,6.276141
0.020000,0.605154,9.569158,0.313600,1.120000,2.000000,0.000000,6.275631
0.020000,0.627953,9.568980,0.336400,1.160000,2.000000,-0.000000,6.275109
0.020000,0.651553,9.568783,0.360000,1.200000,2.000000,0.000000,6.274575
0.020000,0.675952,9.568566,0.384400,1.240000,2.000000,-0.000000,6.274031
0.020000,0.701150,9.568329,0.409600,1.280000,2.000000,0.000000,6.273478
0.020000,0.727149,9.568069,0.435600,1.320000,2.000000,0.000000,6.272916
0.020000,0.753948,9.567786,0.462400,1.360000,2.000000,-0.000000,6.272345
0.020000,0.781546,9.567479,0.490000,1.400000,2.000000,0.000000,6.271768
0.020000,0.809944,9.567146,0.518400,1.440000,2.000000,0.000000,6.271184
0.020000,0.839142,9.566787,0.547600,1.480000,2.000000,0.000000,6.270595
0.020000,0.869139,9.566401,0.577600,1.520000,2.000000,0.000000,6.270001
0.020000,0.899936,9.565985,0.608400,1.560000,2.000000,0.000000,6.269403
0.020000,0.931533,9.565540,0.640000,1.600000,2.000000,0.000000,6.268803
0.020000,0.963930,9.565065,0.672400,1.640000,2.000000,-0.000000,6.268201
0.020000,0.997126,9.564557,0.705600,1.680000,2.000000,0.000000,6.267599
0.020000,1.031122,9.564017,0.739600,1.720000,2.000000,-0.000000,6.266997
0.020000,1.065917,9.563443,0.774400,1.760000,2.000000,-0.000000,6.266396
0.020000,1.101512,9.562835,0.810000,1.800000,2.000000,0.000000,6.265797
0.020000,1.137906,9.562191,0.846400,1.840000,2.000000,0.000000,6.265202
0.020000,1.175100,9.561511,0.883600,1.880000,2.000000,0.000000,6.264612
0.020000,1.213093,9.560794,0.921600,1.920000,2.000000,-0.000000,6.264028
0.020000,1.251886,9.560040,0.960400,1.960000,2.000000,0.000000,6.263450
0.020000,1.291478,9.559247,1.000000,2.000000,2.000000,0.000000,6.262881
0.020000,1.331869,9.558415,1.040400,2.040000,2.000000,0.000000,6.262320
0.020000,1.373060,9.557544,1.081600,2.080000,2.000000,0.000000,6.261771
0.020000,1.415050,9.556633,1.123600,2.120000,2.000000,0.000000,6.261233
0.020000,1.457840,9.555683,1.166400,2.160000,2.000000,0.000000,6.260709
0.020000,1.501428,9.554692,1.210000,2.200000,2.000000,-0.000000,6.260198
0.020000,1.545816,9.553660,1.254400,2.240000,2.000000,0.000000,6.259704
0.020000,1.591004,9.552588,1.299600,2.280000,2.000000,-0.000000,6.259226
0.020000,1.636990,9.551475,1.345600,2.320000,2.000000,-0.000000,6.258767
0.020000,1.683776,9.550322,1.392400,2.360000,2.000000,0.000000,6.258328
0.020000,1.731361,9.549129,1.440000,2.400000,2.000000,0.000000,6.257910
0.020000,1.779745,9.547896,1.488400,2.440000,2.000000,-0.000000,6.257514
0.020000,1.828929,9.546624,1.537600,2.480000,2.000000,0.000000,6.257143
0.020000,1.878912,9.545313,1.587600,2.520000,2.000000,0.000000,6.256797
0.020000,1.929694,9.543965,1.638400,2.560000,2.000000,0.000000,6.256479
0.020000,1.981275,9.542579,1.690000,2.600000,2.000000,0.000000,6.256189
0.020000,2.033656,9.541158,1.742400,2.640000,2.000000,0.000000,6.255929
0.020000,2.086836,9.539702,1.795600,2.680000,2.000000,-0.000000,6.255702
0.020000,2.140815,9.538212,1.849600,2.720000,2.000000,0.000000,6.255507
0.020000,2.195594,9.536691,1.904400,2.760000,2.000000,0.000000,6.255348
0.020000,2.251173,9.535140,1.960000,2.800000,2.000000,-0.000000,6.255225
0.020000,2.307551,9.533561,2.016400,2.840000,2.000000,0.000000,6.255141
0.020000,2.364728,9.531955,2.073600,2.880000,2.000000,0.000000,6.255097
0.020000,2.422705,9.530326,2.131600,2.920000,2.000000,0.000000,6.255095
0.020000,2.481482,9.528676,2.190400,2.960000,2.000000,0.000000,6.255137
0.020000,2.541059,9.527007,2.250000,3.000000,2.000000,0.000000,6.255223
0.020000,2.601035,9.525333,2.310000,3.000000,0.000000,-100.000000,6.255357
0.020000,2.661012,9.523669,2.370000,3.000000,0.000000,0.000000,6.255536
0.020000,2.720989,9.522016,2.430000,3.000000,0.000000,0.000000,6.255760
0.020000,2.780967,9.520379,2.490000,3.000000,0.000000,0.000000,6.256031
0.020000,2.840945,9.518759,2.550000,3.000000,0.000000,0.000000,6.256347
0.020000,2.900924,9.517160,2.610000,3.000000,0.000000,0.000000,6.256710
0.020000,2.960903,9.515583,2.670000,3.000000,0.000000,0.000000,6.257118
0.020000,3.020883,9.514033,2.730000,3.000000,0.000000,0.000000,6.257572
0.020000,3.080864,9.512511,2.790000,3.000000,0.000000,0.000000,6.258072
0.020000,3.140845,9.511020,2.850000,3.000000,0.000000,0.000000,6.258619
0.020000,3.200828,9.509564,2.910000,3.000000,0.000000,0.000000,6.259211
0.020000,3.260811,9.508145,2.970000,3.000000,0.000000,0.000000,6.259849
0.020000,3.320795,9.506765,3.030000,3.000000,0.000000,0.000000,6.260534
0.020000,3.380780,9.505428,3.090000,3.000000,0.000000,0.000000,6.261265
0.020000,3.440766,9.504136,3.150000,3.000000,0.000000,0.000000,6.262042
0.020000,3.500753,9.502892,3.210000,3.000000,0.000000,0.000000,6.262865
0.020000,3.560741,9.501698,3.270000,3.000000,0.000000,0.000000,6.263735
0.020000,3.620731,9.500559,3.330000,3.000000,0.000000,0.000000,6.264652
0.020000,3.680721,9.499475,3.390000,3.000000,0.000000,0.000000,6.265614
0.020000,3.740712,9.498451,3.450000,3.000000,0.000000,0.000000,6.266624
0.020000,3.800704,9.497489,3.510000,3.000000,0.000000,0.000000,6.267680
0.020000,3.860698,9.496592,3.570000,3.000000,0.000000,0.000000,6.268783
0.020000,3.920692,9.495762,3.630000,3.000000,0.000000,0.000000,6.269933
0.020000,3.980687,9.495002,3.690000,3.000000,0.000000,0.000000,6.271130
0.020000,4.040683,9.494316,3.750000,3.000000,0.000000,0.000000,6.272373
0.020000,4.100680,9.493706,3.810000,3.000000,0.000000,0.000000,6.273664
0.020000,4.160678,9.493175,3.870000,3.000000,0.000000,0.000000,6.275002
0.020000,4.220676,9.492725,3.930000,3.000000,0.000000,0.000000,6.276388
0.020000,4.280675,9.492360,3.990000,3.000000,0.000000,0.000000,6.277820
0.020000,4.340674,9.492082,4.050000,3.000000,0.000000,0.000000,6.279301
0.020000,4.400674,9.491895,4.110000,3.000000,0.000000,0.000000,6.280828
0.020000,4.460674,9.491800,4.170000,3.000000,0.000000,0.000000,6.282404
0.020000,4.520674,9.491802,4.230000,3.000000,0.000000,0.000000,0.000842
0.020000,4.580674,9.491902,4.290000,3.000000,0.000000,0.000000,0.002513
0.020000,4.640673,9.492104,4.350000,3.000000,0.000000,0.000000,0.004232
0.020000,4.700673,9.492411,4.410000,3.000000,0.000000,0.000000,0.006000
0.020000,4.760671,9.492825,4.470000,3.000000,0.000000,0.000000,0.007815
0.020000,4.820669,9.493350,4.530000,3.000000,0.000000,0.000000,0.009679
0.020000,4.880666,9.493988,4.590000,3.000000,0.000000,0.000000,0.011591
0.020000,4.940661,9.494742,4.650000,3.000000,0.000000,0.000000,0.013552
0.020000,5.000654,9.495615,4.710000,3.000000,0.000000,0.000000,0.015561
0.020000,5.060646,9.496610,4.770000,3.000000,0.000000,0.000000,0.017620
0.020000,5.120636,9.497730,4.830000,3.000000,0.000000,0.000000,0.019727
0.020000,5.180623,9.498978,4.890000,3.000000,0.000000,0.000000,0.021883
0.020000,5.240607,9.500357,4.950000,3.000000,0.000000,0.000000,0.024088
0.020000,5.300588,9.501869,5.010000,3.000000,0.000000,0.000000,0.026342
0.020000,5.360565,9.503518,5.070000,3.000000,0.000000,0.000000,0.028645
0.020000,5.420538,9.505307,5.130000,3.000000,0.000000,0.000000,0.030998
0.020000,5.480507,9.507238,5.190000,3.000000,0.000000,0.000000,0.033400
0.020000,5.540471,9.509315,5.250000,3.000000,0.000000,0.000000,0.035852
0.020000,5.600430,9.511541,5.310000,3.000000,0.000000,0.000000,0.038354
0.020000,5.660383,9.513918,5.370000,3.000000,0.000000,0.000000,0.040905
0.020000,5.720330,9.516449,5.430000,3.000000,0.000000,0.000000,0.043506
0.020000,5.780269,9.519138,5.490000,3.000000,0.000000,0.000000,0.046157
0.020000,5.840202,9.521987,5.550000,3.000000,0.000000,0.000000,0.048858
0.020000,5.900126,9.524999,5.610000,3.000000,0.000000,0.000000,0.051609
0.020000,5.960042,9.528178,5.670000,3.000000,0.000000,0.000000,0.054410
0.020000,6.019948,9.531526,5.730000,3.000000,0.000000,0.000000,0.057262
0.020000,6.079845,9.535047,5.790000,3.000000,0.000000,0.000000,0.060163
0.020000,6.139731,9.538743,5.850000,3.000000,0.000000,0.000000,0.063115
0.020000,6.199605,9.542617,5.910000,3.000000,0.000000,0.000000,0.066118
0.020000,6.259468,9.546672,5.970000,3.000000,0.000000,0.000000,0.069171
0.020000,6.319318,9.550911,6.030000,3.000000,0.000000,0.000000,0.072274
0.020000,6.379155,9.555338,6.090000,3.000000,0.000000,0.000000,0.075428
0.020000,6.438977,9.559955,6.150000,3.000000,0.000000,0.000000,0.078632
0.020000,6.498784,9.564765,6.210000,3.000000,0.000000,0.000000,0.081887
0.020000,6.558574,9.569772,6.270000,3.000000,0.000000,0.000000,0.085192
0.020000,6.618348,9.574977,6.330000,3.000000,0.000000,0.000000,0.088548
0.020000,6.678104,9.580385,6.390000,3.000000,0.000000,0.000000,0.091955
0.020000,6.737841,9.585997,6.450000,3.000000,0.000000,0.000000,0.095412
0.020000,6.797558,9.591818,6.510000,3.000000,0.000000,0.000000,0.098920
0.020000,6.857254,9.597849,6.570000,3.000000,0.000000,0.000000,0.102478
0.020000,6.916928,9.604094,6.630000,3.000000,0.000000,0.000000,0.106086
0.020000,6.976579,9.610557,6.690000,3.000000,0.000000,0.000000,0.109745
0.020000,7.036205,9.617238,6.750000,3.000000,0.000000,0.000000,0.113454
0.020000,7.095807,9.624143,6.810000,3.000000,0.000000,0.000000,0.117214
0.020000,7.155382,9.631273,6.870000,3.000000,0.000000,0.000000,0.121023
0.020000,7.214929,9.638631,6.930000,3.000000,0.000000,0.000000,0.124883
0.020000,7.274447,9.646221,6.990000,3.000000,0.000000,0.000000,0.128792
0.020000,7.333934,9.654044,7.050000,3.000000,0.000000,0.000000,0.132751
0.020000,7.393390,9.662105,7.110000,3.000000,0.000000,0.000000,0.136760
0.020000,7.452813,9.670405,7.170000,3.000000,0.000000,0.000000,0.140818
0.020000,7.512202,9.678948,7.230000,3.000000,0.000000,0.000000,0.144925
0.020000,7.571555,9.687737,7.290000,3.000000,0.000000,0.000000,0.149082
0.020000,7.630871,9.696773,7.350000,3.000000,0.000000,0.000000,0.153287
0.020000,7.690147,9.706060,7.410000,3.000000,0.000000,0.000000,0.157541
0.020000,7.749384,9.715600,7.470000,3.000000,0.000000,0.000000,0.161843
0.020000,7.808579,9.725397,7.530000,3.000000,0.000000,0.000000,0.166194
0.020000,7.867730,9.735453,7.590000,3.000000,0.000000,0.000000,0.170592
0.020000,7.926836,9.745770,7.650000,3.000000,0.000000,0.000000,0.175038
0.020000,7.985896,9.756351,7.710000,3.000000,0.000000,0.000000,0.179531
0.020000,8.044907,9.767199,7.770000,3.000000,0.000000,0.000000,0.184071
0.020000,8.103868,9.778316,7.830000,3.000000,0.000000,0.000000,0.188658
0.020000,8.162777,9.789705,7.890000,3.000000,0.000000,0.000000,0.193290
0.020000,8.221633,9.801368,7.950000,3.000000,0.000000,0.000000,0.197969
0.020000,8.280433,9.813307,8.010000,3.000000,0.000000,0.000000,0.202693
0.020000,8.339175,9.825525,8.070000,3.000000,0.000000,0.000000,0.207462
0.020000,8.397859,9.838025,8.130000,3.000000,0.000000,0.000000,0.212276
0.020000,8.456481,9.850808,8.190000,3.000000,0.000000,0.000000,0.217133
0.020000,8.515041,9.863877,8.250000,3.000000,0.000000,0.000000,0.222034
0.020000,8.573535,9.877235,8.310000,3.000000,0.000000,0.000000,0.226978
0.020000,8.631962,9.890882,8.370000,3.000000,0.000000,0.000000,0.231965
0.020000,8.690320,9.904822,8.430000,3.000000,0.000000,0.000000,0.236994
0.020000,8.748607,9.919057,8.490000,3.000000,0.000000,0.000000,0.242064
0.020000,8.806821,9.933588,8.550000,3.000000,0.000000,0.000000,0.247175
0.020000,8.864959,9.948417,8.610000,3.000000,0.000000,0.000000,0.252326
0.020000,8.923020,9.963547,8.670000,3.000000,0.000000,0.000000,0.257517
0.020000,8.981001,9.978980,8.730000,3.000000,0.000000,0.000000,0.262747
0.020000,9.038901,9.994716,8.790000,3.000000,0.000000,0.000000,0.268014
0.020000,9.096716,10.010758,8.850000,3.000000,0.000000,0.000000,0.273320
0.020000,9.154446,10.027108,8.910000,3.000000,0.000000,0.000000,0.278662
0.020000,9.212087,10.043767,8.970000,3.000000,0.000000,0.000000,0.284040
0.020000,9.269637,10.060737,9.030000,3.000000,0.000000,0.000000,0.289454
0.020000,9.327094,10.078019,9.090000,3.000000,0.000000,0.000000,0.294902
0.020000,9.384456,10.095615,9.150000,3.000000,0.000000,0.000000,0.300384
0.020000,9.441720,10.113526,9.210000,3.000000,0.000000,0.000000,0.305898
0.020000,9.498884,10.131753,9.270000,3.000000,0.000000,0.000000,0.311445
0.020000,9.555946,10.150298,9.330000,3.000000,0.000000,0.000000,0.317023
0.020000,9.612903,10.169162,9.390000,3.000000,0.000000,0.000000,0.322631
0.020000,9.669754,10.188346,9.450000,3.000000,0.000000,0.000000,0.328269
0.020000,9.726495,10.207851,9.510000,3.000000,0.000000,0.000000,0.333936
0.020000,9.783124,10.227678,9.570000,3.000000,0.000000,0.000000,0.339629
0.020000,9.839639,10.247828,9.630000,3.000000,0.000000,0.000000,0.345350
0.020000,9.896038,10.268302,9.690000,3.000000,0.000000,0.000000,0.351096
0.020000,9.952318,10.289100,9.750000,3.000000,0.000000,0.000000,0.356867
0.020000,10.008477,10.310223,9.810000,3.000000,0.000000,0.000000,0.362662
0.020000,10.064512,10.331671,9.870000,3.000000,0.000000,0.000000,0.368479
0.020000,10.120421,10.353446,9.930000,3.000000,0.000000,0.000000,0.374319
0.020000,10.176202,10.375548,9.990000,3.000000,0.000000,0.000000,0.380178
0.020000,10.231852,10.397977,10.050000,3.000000,0.000000,0.000000,0.386058
0.020000,10.287369,10.420733,10.110000,3.000000,0.000000,0.000000,0.391956
0.020000,10.342751,10.443817,10.170000,3.000000,0.000000,0.000000,0.397872
0.020000,10.397995,10.467228,10.230000,3.000000,0.000000,0.000000,0.403804
0.020000,10.453099,10.490967,10.290000,3.000000,0.000000,0.000000,0.409751
0.020000,10.508061,10.515034,10.350000,3.000000,0.000000,0.000000,0.415713
0.020000,10.562877,10.539428,10.410000,3.000000,0.000000,0.000000,0.421688
0.020000,10.617547,10.564150,10.470000,3.000000,0.000000,0.000000,0.427675
0.020000,10.672068,10.589199,10.530000,3.000000,0.000000,0.000000,0.433674
0.020000,10.726438,10.614574,10.590000,3.000000,0.000000,0.000000,0.439682
0.020000,10.780654,10.640277,10.650000,3.000000,0.000000,0.000000,0.445699
0.020000,10.834715,10.666305,10.710000,3.000000,0.000000,0.000000,0.451724
0.020000,10.888617,10.692659,10.770000,3.000000,0.000000,0.000000,0.457755
0.020000,10.942359,10.719337,10.830000,3.000000,0.000000,0.000000,0.463792
0.020000,10.995940,10.746339,10.890000,3.000000,0.000000,0.000000,0.469834
0.020000,11.049356,10.773665,10.950000,3.000000,0.000000,0.000000,0.475879
0.020000,11.102606,10.801314,11.010000,3.000000,0.000000,0.000000,0.481926
0.020000,11.155688,10.829283,11.070000,3.000000,0.000000,0.000000,0.487974
0.020000,11.208599,10.857574,11.130000,3.000000,0.000000,0.000000,0.494023
0.020000,11.261339,10.886183,11.190000,3.000000,0.000000,0.000000,0.500070
0.020000,11.313905,10.915112,11.250000,3.000000,0.000000,0.000000,0.506116
0.020000,11.366295,10.944357,11.310000,3.000000,0.000000,0.000000,0.512158
0.020000,11.418506,10.973918,11.370000,3.000000,0.000000,0.000000,0.518196
0.020000,11.470539,11.003794,11.430000,3.000000,0.000000,0.000000,0.524230
0.020000,11.522391,11.033984,11.490000,3.000000,0.000000,0.000000,0.530256
0.020000,11.574060,11.064484,11.550000,3.000000,0.000000,0.000000,0.536276
0.020000,11.625544,11.095295,11.610000,3.000000,0.000000,0.000000,0.542288
0.020000,11.676843,11.126416,11.670000,3.000000,0.000000,0.000000,0.548290
0.020000,11.727954,11.157842,11.730000,3.000000,0.000000,0.000000,0.554282
0.020000,11.778876,11.189575,11.790000,3.000000,0.000000,0.000000,0.560263
0.020000,11.829608,11.221611,11.850000,3.000000,0.000000,0.000000,0.566232
0.020000,11.880147,11.253949,11.910000,3.000000,0.000000,0.000000,0.572188
0.020000,11.930493,11.286587,11.970000,3.000000,0.000000,0.000000,0.578130
0.020000,11.980645,11.319524,12.030000,3.000000,0.000000,0.000000,0.584058
0.020000,12.025088,11.349069,12.090000,3.000000,0.000000,0.000000,0.589433
0.020000,12.074858,11.382580,12.150000,3.000000,0.000000,0.000000,0.595722
0.020000,12.124419,11.416397,12.210000,3.000000,0.000000,0.000000,0.601781
0.020000,12.173779,11.450509,12.270000,3.000000,0.000000,0.000000,0.607610
0.020000,12.222943,11.484902,12.330000,3.000000,0.000000,0.000000,0.613211
0.020000,12.271918,11.519565,12.390000,3.000000,0.000000,0.000000,0.618583
0.020000,12.320709,11.554484,12.450000,3.000000,0.000000,0.000000,0.623729
0.020000,12.369325,11.589649,12.510000,3.000000,0.000000,0.000000,0.628649
0.020000,12.417770,11.625046,12.570000,3.000000,0.000000,0.000000,0.633343
0.020000,12.466053,11.660666,12.630000,3.000000,0.000000,0.000000,0.637814
0.020000,12.514181,11.696495,12.690000,3.000000,0.000000,0.000000,0.642063
0.020000,12.562159,11.732524,12.750000,3.000000,0.000000,0.000000,0.646089
0.020000,12.609996,11.768740,12.810000,3.000000,0.000000,0.000000,0.649895
0.020000,12.657699,11.805133,12.870000,3.000000,0.000000,0.000000,0.653482
0.020000,12.705275,11.841691,12.930000,3.000000,0.000000,0.000000,0.656851
0.020000,12.752732,11.878404,12.990000,3.000000,0.000000,0.000000,0.660002
0.020000,12.800077,11.915262,13.050000,3.000000,0.000000,0.000000,0.662936
0.020000,12.847317,11.952253,13.110000,3.000000,0.000000,0.000000,0.665656
0.020000,12.894461,11.989367,13.170000,3.000000,0.000000,0.000000,0.668161
0.020000,12.941515,12.026595,13.230000,3.000000,0.000000,0.000000,0.670452
0.020000,12.988488,12.063925,13.290000,3.000000,0.000000,0.000000,0.672531
0.020000,13.035388,12.101347,13.350000,3.000000,0.000000,0.000000,0.674398
0.020000,13.082221,12.138853,13.410000,3.000000,0.000000,0.000000,0.676053
0.020000,13.128996,12.176430,13.470000,3.000000,0.000000,0.000000,0.677498
0.020000,13.175721,12.214071,13.530000,3.000000,0.000000,0.000000,0.678733
0.020000,13.222403,12.251764,13.590000,3.000000,0.000000,0.000000,0.679758
0.020000,13.269050,12.289500,13.650000,3.000000,0.000000,0.000000,0.680573
0.020000,13.315671,12.327269,13.710000,3.000000,0.000000,0.000000,0.681180
0.020000,13.362273,12.365062,13.770000,3.000000,0.000000,0.000000,0.681577
0.020000,13.408863,12.402868,13.830000,3.000000,0.000000,0.000000,0.681767
0.020000,13.455451,12.440679,13.890000,3.000000,0.000000,0.000000,0.681747
0.020000,13.502043,12.478483,13.950000,3.000000,0.000000,0.000000,0.681520
0.020000,13.548647,12.516272,14.010000,3.000000,0.000000,0.000000,0.681083
0.020000,13.595272,12.554036,14.070000,3.000000,0.000000,0.000000,0.680438
0.020000,13.641925,12.591765,14.130000,3.000000,0.000000,0.000000,0.679584
0.020000,13.688615,12.629449,14.190000,3.000000,0.000000,0.000000,0.678520
0.020000,13.735348,12.667079,14.250000,3.000000,0.000000,0.000000,0.677247
0.020000,13.782134,12.704644,14.310000,3.000000,0.000000,0.000000,0.675763
0.020000,13.828979,12.742135,14.370000,3.000000,0.000000,0.000000,0.674069
0.020000,13.875891,12.779541,14.430000,3.000000,0.000000,0.000000,0.672163
0.020000,13.922878,12.816853,14.490000,3.000000,0.000000,0.000000,0.670045
0.020000,13.969949,12.854060,14.550000,3.000000,0.000000,0.000000,0.667714
0.020000,14.017110,12.891152,14.610000,3.000000,0.000000,0.000000,0.665169
0.020000,14.064369,12.928120,14.670000,3.000000,0.000000,0.000000,0.662410
0.020000,14.111734,12.964951,14.730000,3.000000,0.000000,0.000000,0.659435
0.020000,14.159212,13.001637,14.790000,3.000000,0.000000,0.000000,0.656244
0.020000,14.206811,13.038165,14.850000,3.000000,0.000000,0.000000,0.652835
0.020000,14.254538,13.074526,14.910000,3.000000,0.000000,0.000000,0.649208
0.020000,14.302401,13.110708,14.970000,3.000000,0.000000,0.000000,0.645361
0.020000,14.350406,13.146701,15.030000,3.000000,0.000000,0.000000,0.641294
0.020000,14.398562,13.182492,15.090000,3.000000,0.000000,0.000000,0.637004
0.020000,14.446875,13.218072,15.150000,3.000000,0.000000,0.000000,0.632492
0.020000,14.495351,13.253427,15.210000,3.000000,0.000000,0.000000,0.627756
0.020000,14.543999,13.288547,15.270000,3.000000,0.000000,0.000000,0.622794
0.020000,14.592824,13.323420,15.330000,3.000000,0.000000,0.000000,0.617607
0.020000,14.641833,13.358033,15.390000,3.000000,0.000000,0.000000,0.612192
0.020000,14.691033,13.392375,15.450000,3.000000,0.000000,0.000000,0.606549
0.020000,14.740429,13.426434,15.510000,3.000000,0.000000,0.000000,0.600678
0.020000,14.790029,13.460195,15.570000,3.000000,0.000000,0.000000,0.594576
0.020000,14.839837,13.493648,15.630000,3.000000,0.000000,0.000000,0.588244
0.020000,14.889861,13.526779,15.690000,3.000000,0.000000,0.000000,0.581681
0.020000,14.940104,13.559575,15.750000,3.000000,0.000000,0.000000,0.574887
0.020000,14.990573,13.592024,15.810000,3.000000,0.000000,0.000000,0.567861
0.020000,15.041272,13.624111,15.870000,3.000000,0.000000,0.000000,0.560603
0.020000,15.092207,13.655823,15.930000,3.000000,0.000000,0.000000,0.553112
0.020000,15.143381,13.687147,15.990000,3.000000,0.000000,0.000000,0.545391
0.020000,15.194799,13.718068,16.050000,3.000000,0.000000,0.000000,0.537438
0.020000,15.246465,13.748574,16.110000,3.000000,0.000000,0.000000,0.529254
0.020000,15.298382,13.778650,16.170000,3.000000,0.000000,0.000000,0.520841
0.020000,15.350554,13.808283,16.230000,3.000000,0.000000,0.000000,0.512200
0.020000,15.402983,13.837457,16.290000,3.000000,0.000000,0.000000,0.503332
0.020000,15.455672,13.866160,16.350000,3.000000,0.000000,0.000000,0.494239
0.020000,15.508623,13.894376,16.410000,3.000000,0.000000,0.000000,0.484924
0.020000,15.561838,13.922092,16.470000,3.000000,0.000000,0.000000,0.475388
0.020000,15.615317,13.949293,16.530000,3.000000,0.000000,0.000000,0.465636
0.020000,15.668953,13.975912,16.589878,2.987774,-0.611311,-30.565550,0.455690
0.020000,15.722382,14.001766,16.649233,2.947774,-2.000000,-69.434450,0.445624
0.020000,15.775345,14.026737,16.707789,2.907774,-2.000000,-0.000000,0.435497
0.020000,15.827832,14.050836,16.765544,2.867774,-2.000000,0.000000,0.425321
0.020000,15.879832,14.074072,16.822500,2.827774,-2.000000,0.000000,0.415106
0.020000,15.931333,14.096456,16.878655,2.787774,-2.000000,0.000000,0.404867
0.020000,15.982324,14.118000,16.934011,2.747774,-2.000000,0.000000,0.394614
0.020000,16.032793,14.138716,16.988566,2.707774,-2.000000,0.000000,0.384359
0.020000,16.082729,14.158617,17.042322,2.667774,-2.000000,-0.000000,0.374114
0.020000,16.132119,14.177718,17.095277,2.627774,-2.000000,0.000000,0.363890
0.020000,16.180953,14.196032,17.147432,2.587774,-2.000000,0.000000,0.353698
0.020000,16.229219,14.213576,17.198788,2.547774,-2.000000,-0.000000,0.343549
0.020000,16.276905,14.230364,17.249343,2.507774,-2.000000,-0.000000,0.333452
0.020000,16.324001,14.246414,17.299099,2.467774,-2.000000,0.000000,0.323418
0.020000,16.370495,14.261741,17.348054,2.427774,-2.000000,-0.000000,0.313456
0.020000,16.416376,14.276364,17.396210,2.387774,-2.000000,0.000000,0.303576
0.020000,16.461635,14.290299,17.443565,2.347774,-2.000000,0.000000,0.293786
0.020000,16.506260,14.303564,17.490121,2.307774,-2.000000,0.000000,0.284095
0.020000,16.550242,14.316179,17.535876,2.267774,-2.000000,0.000000,0.274511
0.020000,16.593572,14.328160,17.580832,2.227774,-2.000000,0.000000,0.265041
0.020000,16.636238,14.339527,17.624987,2.187774,-2.000000,0.000000,0.255692
0.020000,16.678234,14.350299,17.668343,2.147774,-2.000000,0.000000,0.246471
0.020000,16.719550,14.360494,17.710898,2.107774,-2.000000,0.000000,0.237384
0.020000,16.760178,14.370132,17.752654,2.067774,-2.000000,0.000000,0.228436
0.020000,16.800110,14.379231,17.793609,2.027774,-2.000000,0.000000,0.219634
0.020000,16.839338,14.387810,17.833765,1.987774,-2.000000,-0.000000,0.210981
0.020000,16.877855,14.395888,17.873120,1.947774,-2.000000,-0.000000,0.202483
0.020000,16.915655,14.403484,17.911676,1.907774,-2.000000,0.000000,0.194143
0.020000,16.952731,14.410617,17.949431,1.867774,-2.000000,-0.000000,0.185965
0.020000,16.989076,14.417304,17.986387,1.827774,-2.000000,0.000000,0.177953
0.020000,17.024685,14.423565,18.022542,1.787774,-2.000000,0.000000,0.170109
0.020000,17.059553,14.429416,18.057897,1.747774,-2.000000,0.000000,0.162436
0.020000,17.093674,14.434877,18.092453,1.707774,-2.000000,0.000000,0.154937
0.020000,17.127044,14.439964,18.126208,1.667774,-2.000000,0.000000,0.147612
0.020000,17.159658,14.444694,18.159164,1.627774,-2.000000,-0.000000,0.140465
0.020000,17.191512,14.449085,18.191319,1.587774,-2.000000,0.000000,0.133496
0.020000,17.222603,14.453153,18.222675,1.547774,-2.000000,0.000000,0.126706
0.020000,17.252926,14.456914,18.253230,1.507774,-2.000000,0.000000,0.120097
0.020000,17.282478,14.460384,18.282986,1.467774,-2.000000,-0.000000,0.113670
0.020000,17.311257,14.463578,18.311941,1.427774,-2.000000,0.000000,0.107424
0.020000,17.339259,14.466512,18.340097,1.387774,-2.000000,-0.000000,0.101359
0.020000,17.366482,14.469200,18.367452,1.347774,-2.000000,0.000000,0.095478
0.020000,17.392924,14.471656,18.394008,1.307774,-2.000000,0.000000,0.089778
0.020000,17.418581,14.473894,18.419763,1.267774,-2.000000,0.000000,0.084260
0.020000,17.443454,14.475928,18.444719,1.227774,-2.000000,0.000000,0.078925
0.020000,17.467539,14.477771,18.468874,1.187774,-2.000000,0.000000,0.073770
0.020000,17.490835,14.479434,18.492230,1.147774,-2.000000,0.000000,0.068797
0.020000,17.513341,14.480931,18.514785,1.107774,-2.000000,-0.000000,0.064004
0.020000,17.535055,14.482272,18.536541,1.067774,-2.000000,0.000000,0.059391
0.020000,17.555976,14.483470,18.557496,1.027774,-2.000000,0.000000,0.054957
0.020000,17.576104,14.484534,18.577652,0.987774,-2.000000,0.000000,0.050701
0.020000,17.595436,14.485475,18.597007,0.947774,-2.000000,-0.000000,0.046623
0.020000,17.613973,14.486304,18.615562,0.907774,-2.000000,0.000000,0.042722
0.020000,17.631713,14.487029,18.633318,0.867774,-2.000000,-0.000000,0.038997
0.020000,17.648658,14.487660,18.650273,0.827774,-2.000000,0.000000,0.035447
0.020000,17.664804,14.488205,18.666429,0.787774,-2.000000,-0.000000,0.032071
0.020000,17.680152,14.488673,18.681784,0.747774,-2.000000,0.000000,0.028869
0.020000,17.694702,14.489071,18.696340,0.707774,-2.000000,0.000000,0.025839
0.020000,17.708454,14.489407,18.710095,0.667774,-2.000000,-0.000000,0.022981
0.020000,17.721406,14.489687,18.723051,0.627774,-2.000000,0.000000,0.020294
0.020000,17.733559,14.489919,18.735206,0.587774,-2.000000,0.000000,0.017777
0.020000,17.744913,14.490107,18.746562,0.547774,-2.000000,-0.000000,0.015430
0.020000,17.755467,14.490259,18.757117,0.507774,-2.000000,0.000000,0.013251
0.020000,17.765222,14.490378,18.766873,0.467774,-2.000000,-0.000000,0.011240
0.020000,17.774177,14.490471,18.775828,0.427774,-2.000000,0.000000,0.009397
0.020000,17.782333,14.490540,18.783984,0.387774,-2.000000,0.000000,0.007720
0.020000,17.789688,14.490592,18.791339,0.347774,-2.000000,0.000000,0.006210
0.020000,17.796243,14.490628,18.797895,0.307774,-2.000000,-0.000000,0.004865
0.020000,17.801998,14.490652,18.803650,0.267774,-2.000000,0.000000,0.003685
0.020000,17.806954,14.490668,18.808606,0.227774,-2.000000,0.000000,0.002670
0.020000,17.811109,14.490678,18.812761,0.187774,-2.000000,0.000000,0.001820
0.020000,17.814465,14.490682,18.816117,0.147774,-2.000000,-0.000000,0.001133
0.020000,17.817020,14.490685,18.818672,0.107774,-2.000000,0.000000,0.000611
0.020000,17.818776,14.490685,18.820427,0.067774,-2.000000,-0.000000,0.000252
0.020000,17.819731,14.490686,18.821383,0.027774,-2.000000,0.000000,0.000057
0.020000,17.820009,14.490686,18.821661,0.000000,-1.388689,30.565550,6.283185
0.020000,17.820009,14.490686,18.821661,0.000000,0.000000,69.434450,6.283185
