dt,x,y,position,velocity,acceleration,jerk,heading
0.010000,4.535043,11.636878,0.000050,0.009993,0.999323,99.932314,0.000000
0.010000,4.535043,11.636878,0.000250,0.029980,1.998646,99.932314,0.000000
0.010000,4.535043,11.636878,0.000650,0.049966,1.998646,0.000000,0.000000
0.010000,4.535043,11.636878,0.001249,0.069953,1.998646,0.000000,0.000000
0.010000,4.535043,11.636878,0.002049,0.089939,1.998646,-0.000000,0.000000
0.010000,4.535043,11.636878,0.003048,0.109926,1.998646,0.000000,0.000000
0.010000,4.535043,11.636878,0.004247,0.129912,1.998646,0.000000,0.000000
0.010000,4.535179,11.636878,0.005646,0.149898,1.998646,0.000000,0.000000
0.010000,4.536777,11.636878,0.007245,0.169885,1.998646,0.000000,0.000000
0.010000,4.538576,11.636878,0.009044,0.189871,1.998646,0.000000,0.000000
0.010000,4.540575,11.636878,0.011043,0.209858,1.998646,0.000000,0.000000
0.010000,4.542773,11.636878,0.013241,0.229844,1.998646,0.000000,0.000000
0.010000,4.545172,11.636878,0.015639,0.249831,1.998646,0.000000,0.000000
0.010000,4.547770,11.636878,0.018238,0.269817,1.998646,-0.000000,0.000000
0.010000,4.550568,11.636878,0.021036,0.289804,1.998646,0.000000,0.000000
0.010000,4.553566,11.636878,0.024034,0.309790,1.998646,-0.000000,0.000000
0.010000,4.556764,11.636878,0.027232,0.329777,1.998646,0.000000,0.000000
0.010000,4.560162,11.636878,0.030629,0.349763,1.998646,0.000000,0.000000
0.010000,4.563759,11.636878,0.034227,0.369750,1.998646,0.000000,0.000000
0.010000,4.567557,11.636878,0.038024,0.389736,1.998646,-0.000000,0.000000
0.010000,4.571554,11.636878,0.042022,0.409722,1.998646,0.000000,0.000000
0.010000,4.575751,11.636878,0.046219,0.429709,1.998646,-0.000000,0.000000
0.010000,4.580148,11.636878,0.050616,0.449695,1.998646,0.000000,0.000000
0.010000,4.584745,11.636878,0.055213,0.469682,1.998646,-0.000000,0.000000
0.010000,4.589542,11.636878,0.060009,0.489668,1.998646,0.000000,0.000000
0.010000,4.594538,11.636878,0.065006,0.509655,1.998646,0.000000,0.000000
0.010000,4.599735,11.636878,0.070202,0.529641,1.998646,0.000000,0.000000
0.010000,4.605131,11.636878,0.075599,0.549628,1.998646,-0.000000,0.000000
0.010000,4.610727,11.636878,0.081195,0.569614,1.998646,0.000000,0.000000
0.010000,4.616523,11.636878,0.086991,0.589601,1.998646,0.000000,0.000000
0.010000,4.622519,11.636878,0.092987,0.609587,1.998646,0.000000,0.000000
0.010000,4.628715,11.636878,0.099183,0.629574,1.998646,0.000000,0.000000
0.010000,4.635111,11.636878,0.105578,0.649560,1.998646,-0.000000,0.000000
0.010000,4.641706,11.636878,0.112174,0.669547,1.998646,0.000000,0.000000
0.010000,4.648502,11.636878,0.118969,0.689533,1.998646,0.000000,0.000000
0.010000,4.655497,11.636878,0.125965,0.709519,1.998646,0.000000,0.000000
0.010000,4.662692,11.636878,0.133160,0.729506,1.998646,0.000000,0.000000
0.010000,4.670087,11.636878,0.140555,0.749492,1.998646,-0.000000,0.000000
0.010000,4.677682,11.636878,0.148150,0.769479,1.998646,0.000000,0.000000
0.010000,4.685477,11.636878,0.155944,0.789465,1.998646,0.000000,0.000000
0.010000,4.693471,11.636878,0.163939,0.809452,1.998646,0.000000,0.000000
0.010000,4.701666,11.636878,0.172133,0.829438,1.998646,-0.000000,0.000000
0.010000,4.710060,11.636878,0.180528,0.849425,1.998646,0.000000,0.000000
0.010000,4.718654,11.636878,0.189122,0.869411,1.998646,0.000000,0.000000
0.010000,4.727448,11.636878,0.197916,0.889398,1.998646,0.000000,0.000000
0.010000,4.736442,11.636878,0.206910,0.909384,1.998646,0.000000,0.000000
0.010000,4.745636,11.636878,0.216104,0.929371,1.998646,-0.000000,0.000000
0.010000,4.755030,11.636878,0.225497,0.949357,1.998646,0.000000,0.000000
0.010000,4.764623,11.636878,0.235091,0.969343,1.998646,0.000000,0.000000
0.010000,4.774416,11.636878,0.244884,0.989330,1.998646,0.000000,0.000000
0.010000,4.784410,11.636878,0.254877,1.009316,1.998646,-0.000000,0.000000
0.010000,4.794603,11.636878,0.265070,1.029303,1.998646,0.000000,0.000000
0.010000,4.804996,11.636878,0.275463,1.049289,1.998646,0.000000,0.000000
0.010000,4.815589,11.636878,0.286056,1.069276,1.998646,-0.000000,0.000000
0.010000,4.826381,11.636878,0.296849,1.089262,1.998646,0.000000,0.000000
0.010000,4.837374,11.636878,0.307841,1.109249,1.998646,-0.000000,0.000000
0.010000,4.848566,11.636878,0.319034,1.129235,1.998646,0.000000,0.000000
0.010000,4.859959,11.636878,0.330426,1.149222,1.998646,0.000000,0.000000
0.010000,4.871551,11.636878,0.342018,1.169208,1.998646,0.000000,0.000000
0.010000,4.883343,11.636878,0.353810,1.189195,1.998646,-0.000000,0.000000
0.010000,4.895335,11.636878,0.365802,1.209181,1.998646,0.000000,0.000000
0.010000,4.907526,11.636878,0.377994,1.229167,1.998646,-0.000000,0.000000
0.010000,4.919918,11.636878,0.390386,1.249154,1.998646,0.000000,0.000000
0.010000,4.932509,11.636878,0.402977,1.269140,1.998646,-0.000000,0.000000
0.010000,4.945301,11.636878,0.415768,1.289127,1.998646,0.000000,0.000000
0.010000,4.958292,11.636878,0.428760,1.309113,1.998646,0.000000,0.000000
0.010000,4.971483,11.636878,0.441951,1.329100,1.998646,0.000000,0.000000
0.010000,4.984874,11.636878,0.455342,1.349086,1.998646,-0.000000,0.000000
0.010000,4.998465,11.636878,0.468932,1.369073,1.998646,0.000000,0.000000
0.010000,5.012255,11.636878,0.482723,1.389059,1.998646,-0.000000,0.000000
0.010000,5.026246,11.636878,0.496714,1.409046,1.998646,-0.000000,0.000000
0.010000,5.040436,11.636878,0.510904,1.429032,1.998646,0.000000,0.000000
0.010000,5.054827,11.636878,0.525294,1.449019,1.998646,-0.000000,0.000000
0.010000,5.069417,11.636878,0.539884,1.469005,1.998646,0.000000,0.000000
0.010000,5.084207,11.636878,0.554674,1.488991,1.998646,0.000000,0.000000
0.010000,5.099196,11.636878,0.569664,1.508978,1.998646,-0.000000,0.000000
0.010000,5.114386,11.636878,0.584854,1.528964,1.998646,0.000000,0.000000
0.010000,5.129776,11.636878,0.600243,1.548951,1.998646,-0.000000,0.000000
0.010000,5.145365,11.636878,0.615833,1.568937,1.998646,0.000000,0.000000
0.010000,5.161155,11.636878,0.631622,1.588924,1.998646,-0.000000,0.000000
0.010000,5.177144,11.636878,0.647611,1.608910,1.998646,0.000000,0.000000
0.010000,5.193333,11.636878,0.663800,1.628897,1.998646,0.000000,0.000000
0.010000,5.209722,11.636878,0.680189,1.648883,1.998646,0.000000,0.000000
0.010000,5.226310,11.636878,0.696778,1.668870,1.998646,-0.000000,0.000000
0.010000,5.243099,11.636878,0.713567,1.688856,1.998646,0.000000,0.000000
0.010000,5.260088,11.636878,0.730555,1.708843,1.998646,-0.000000,0.000000
0.010000,5.277276,11.636878,0.747744,1.728829,1.998646,0.000000,0.000000
0.010000,5.294664,11.636878,0.765132,1.748816,1.998646,-0.000000,0.000000
0.010000,5.312252,11.636878,0.782720,1.768802,1.998646,0.000000,0.000000
0.010000,5.330040,11.636878,0.800508,1.788788,1.998646,0.000000,0.000000
0.010000,5.348028,11.636878,0.818496,1.808775,1.998646,0.000000,0.000000
0.010000,5.366216,11.636878,0.836683,1.828761,1.998646,-0.000000,0.000000
0.010000,5.384603,11.636878,0.855071,1.848748,1.998646,0.000000,0.000000
0.010000,5.403191,11.636878,0.873658,1.868734,1.998646,-0.000000,0.000000
0.010000,5.421978,11.636878,0.892446,1.888721,1.998646,0.000000,0.000000
0.010000,5.440965,11.636878,0.911433,1.908707,1.998646,-0.000000,0.000000
0.010000,5.460152,11.636878,0.930620,1.928694,1.998646,-0.000000,0.000000
0.010000,5.479539,11.636878,0.950007,1.948680,1.998646,0.000000,0.000000
0.010000,5.499126,11.636878,0.969593,1.968667,1.998646,0.000000,0.000000
0.010000,5.518912,11.636878,0.989380,1.988653,1.998646,-0.000000,0.000000
0.010000,5.538899,11.636878,1.009366,2.008640,1.998646,0.000000,0.000000
0.010000,5.559085,11.636878,1.029553,2.028626,1.998646,0.000000,0.000000
0.010000,5.579471,11.636878,1.049939,2.048612,1.998646,-0.000000,0.000000
0.010000,5.600057,11.636878,1.070525,2.068599,1.998646,0.000000,0.000000
0.010000,5.620843,11.636878,1.091311,2.088585,1.998646,0.000000,0.000000
0.010000,5.641829,11.636878,1.112297,2.108572,1.998646,-0.000000,0.000000
0.010000,5.663015,11.636878,1.133482,2.128558,1.998646,0.000000,0.000000
0.010000,5.684400,11.636878,1.154868,2.148545,1.998646,0.000000,0.000000
0.010000,5.705985,11.636878,1.176453,2.168531,1.998646,-0.000000,0.000000
0.010000,5.727771,11.636878,1.198238,2.188518,1.998646,0.000000,0.000000
0.010000,5.749756,11.636878,1.220224,2.208504,1.998646,0.000000,0.000000
0.010000,5.771941,11.636878,1.242408,2.228491,1.998646,0.000000,0.000000
0.010000,5.794326,11.636878,1.264793,2.248477,1.998646,-0.000000,0.000000
0.010000,5.816910,11.636878,1.287378,2.268464,1.998646,0.000000,0.000000
0.010000,5.839695,11.636878,1.310163,2.288450,1.998646,-0.000000,0.000000
0.010000,5.862679,11.636878,1.333147,2.308436,1.998646,0.000000,0.000000
0.010000,5.885864,11.636878,1.356331,2.328423,1.998646,0.000000,0.000000
0.010000,5.909248,11.636878,1.379715,2.348409,1.998646,0.000000,0.000000
0.010000,5.932832,11.636878,1.403300,2.368396,1.998646,-0.000000,0.000000
0.010000,5.956616,11.636878,1.427083,2.388382,1.998646,0.000000,0.000000
0.010000,5.980599,11.636878,1.451067,2.408369,1.998646,0.000000,0.000000
0.010000,6.004783,11.636878,1.475251,2.428355,1.998646,0.000000,0.000000
0.010000,6.029167,11.636878,1.499634,2.448342,1.998646,-0.000000,0.000000
0.010000,6.053750,11.636878,1.524218,2.468328,1.998646,0.000000,0.000000
0.010000,6.078533,11.636878,1.549001,2.488315,1.998646,-0.000000,0.000000
0.010000,6.103516,11.636878,1.573984,2.508301,1.998646,0.000000,0.000000
0.010000,6.128699,11.636878,1.599167,2.528288,1.998646,0.000000,0.000000
0.010000,6.154082,11.636878,1.624550,2.548274,1.998646,0.000000,0.000000
0.010000,6.179665,11.636878,1.650132,2.568260,1.998646,-0.000000,0.000000
0.010000,6.205447,11.636878,1.675915,2.588247,1.998646,0.000000,0.000000
0.010000,6.231430,11.636878,1.701897,2.608233,1.998646,0.000000,0.000000
0.010000,6.257612,11.636878,1.728080,2.628220,1.998646,-0.000000,0.000000
0.010000,6.283994,11.636878,1.754462,2.648206,1.998646,0.000000,0.000000
0.010000,6.310576,11.636878,1.781044,2.668193,1.998646,0.000000,0.000000
0.010000,6.337358,11.636878,1.807826,2.688179,1.998646,0.000000,0.000000
0.010000,6.364340,11.636878,1.834807,2.708166,1.998646,-0.000000,0.000000
0.010000,6.391521,11.636878,1.861989,2.728152,1.998646,0.000000,0.000000
0.010000,6.418903,11.636878,1.889370,2.748139,1.998646,0.000000,0.000000
0.010000,6.446484,11.636878,1.916952,2.768125,1.998646,-0.000000,0.000000
0.010000,6.474265,11.636878,1.944733,2.788112,1.998646,0.000000,0.000000
0.010000,6.502246,11.636878,1.972714,2.808098,1.998646,-0.000000,0.000000
0.010000,6.530427,11.636878,2.000895,2.828084,1.998646,0.000000,0.000000
0.010000,6.558808,11.636878,2.029276,2.848071,1.998646,-0.000000,0.000000
0.010000,6.587389,11.636878,2.057856,2.868057,1.998646,0.000000,0.000000
0.010000,6.616169,11.636878,2.086637,2.888044,1.998646,-0.000000,0.000000
0.010000,6.645149,11.636878,2.115617,2.908030,1.998646,0.000000,0.000000
0.010000,6.674330,11.636878,2.144797,2.928017,1.998646,0.000000,0.000000
0.010000,6.703710,11.636878,2.174177,2.948003,1.998646,-0.000000,0.000000
0.010000,6.733290,11.636878,2.203757,2.967990,1.998646,0.000000,0.000000
0.010000,6.763070,11.636878,2.233537,2.987976,1.998646,0.000000,0.000000
0.010000,6.793049,11.636878,2.263517,3.007963,1.998646,0.000000,0.000000
0.010000,6.823229,11.636878,2.293696,3.027949,1.998646,-0.000000,0.000000
0.010000,6.853608,11.636878,2.324076,3.047936,1.998646,0.000000,0.000000
0.010000,6.884187,11.636878,2.354655,3.067922,1.998646,-0.000000,0.000000
0.010000,6.914967,11.636878,2.385434,3.087909,1.998646,0.000000,0.000000
0.010000,6.945946,11.636878,2.416413,3.107895,1.998646,0.000000,0.000000
0.010000,6.977125,11.636878,2.447592,3.127881,1.998646,-0.000000,0.000000
0.010000,7.008503,11.636878,2.478971,3.147868,1.998646,0.000000,0.000000
0.010000,7.040082,11.636878,2.510550,3.167854,1.998646,-0.000000,0.000000
0.010000,7.071860,11.636878,2.542328,3.187841,1.998646,0.000000,0.000000
0.010000,7.103839,11.636878,2.574306,3.207827,1.998646,-0.000000,0.000000
0.010000,7.136017,11.636878,2.606485,3.227814,1.998646,0.000000,0.000000
0.010000,7.168395,11.636878,2.638863,3.247800,1.998646,-0.000000,0.000000
0.010000,7.200973,11.636878,2.671441,3.267787,1.998646,0.000000,0.000000
0.010000,7.233751,11.636878,2.704218,3.287773,1.998646,0.000000,0.000000
0.010000,7.266728,11.636878,2.737196,3.307760,1.998646,0.000000,0.000000
0.010000,7.299906,11.636878,2.770374,3.327746,1.998646,0.000000,0.000000
0.010000,7.333283,11.636878,2.803751,3.347733,1.998646,-0.000000,0.000000
0.010000,7.366861,11.636878,2.837328,3.367719,1.998646,0.000000,0.000000
0.010000,7.400638,11.636878,2.871105,3.387705,1.998646,-0.000000,0.000000
0.010000,7.434615,11.636878,2.905082,3.407692,1.998646,0.000000,0.000000
0.010000,7.468792,11.636878,2.939259,3.427678,1.998646,0.000000,0.000000
0.010000,7.503168,11.636878,2.973636,3.447665,1.998646,-0.000000,0.000000
0.010000,7.537745,11.636878,3.008212,3.467651,1.998646,0.000000,0.000000
0.010000,7.572521,11.636878,3.042989,3.487638,1.998646,-0.000000,0.000000
0.010000,7.607498,11.636878,3.077965,3.507624,1.998646,0.000000,0.000000
0.010000,7.642674,11.636878,3.113141,3.527611,1.998646,-0.000000,0.000000
0.010000,7.678050,11.636878,3.148517,3.547597,1.998646,0.000000,0.000000
0.010000,7.713626,11.636878,3.184093,3.567584,1.998646,-0.000000,0.000000
0.010000,7.749401,11.636878,3.219869,3.587570,1.998646,0.000000,0.000000
0.010000,7.785377,11.636878,3.255845,3.607557,1.998646,0.000000,0.000000
0.010000,7.821553,11.636878,3.292020,3.627543,1.998646,0.000000,0.000000
0.010000,7.857928,11.636878,3.328396,3.647529,1.998646,0.000000,0.000000
0.010000,7.894503,11.636878,3.364971,3.667516,1.998646,-0.000000,0.000000
0.010000,7.931278,11.636878,3.401746,3.687502,1.998646,0.000000,0.000000
0.010000,7.968253,11.636878,3.438721,3.707489,1.998646,-0.000000,0.000000
0.010000,8.005428,11.636878,3.475896,3.727475,1.998646,0.000000,0.000000
0.010000,8.042803,11.636878,3.513270,3.747462,1.998646,-0.000000,0.000000
0.010000,8.080377,11.636878,3.550845,3.767448,1.998646,0.000000,0.000000
0.010000,8.118152,11.636878,3.588619,3.787435,1.998646,0.000000,0.000000
0.010000,8.156126,11.636878,3.626594,3.807421,1.998646,-0.000000,0.000000
0.010000,8.194300,11.636878,3.664768,3.827408,1.998646,0.000000,0.000000
0.010000,8.232674,11.636878,3.703142,3.847394,1.998646,-0.000000,0.000000
0.010000,8.271248,11.636878,3.741716,3.867381,1.998646,0.000000,0.000000
0.010000,8.310022,11.636878,3.780489,3.887367,1.998646,-0.000000,0.000000
0.010000,8.348995,11.636878,3.819463,3.907353,1.998646,0.000000,0.000000
0.010000,8.388169,11.636878,3.858636,3.927340,1.998646,0.000000,0.000000
0.010000,8.427542,11.636878,3.898010,3.947326,1.998646,-0.000000,0.000000
0.010000,8.467115,11.636878,3.937583,3.967313,1.998646,0.000000,0.000000
0.010000,8.506888,11.636878,3.977356,3.987299,1.998646,-0.000000,0.000000
0.010000,8.546861,11.636878,4.017329,4.007286,1.998646,0.000000,0.000000
0.010000,8.587034,11.636878,4.057502,4.027272,1.998646,-0.000000,0.000000
0.010000,8.627407,11.636878,4.097874,4.047259,1.998646,0.000000,0.000000
0.010000,8.667979,11.636878,4.138447,4.067245,1.998646,-0.000000,0.000000
0.010000,8.708752,11.636878,4.179219,4.087232,1.998646,0.000000,0.000000
0.010000,8.749724,11.636878,4.220192,4.107218,1.998646,-0.000000,0.000000
0.010000,8.790896,11.636878,4.261364,4.127205,1.998646,0.000000,0.000000
0.010000,8.832268,11.636878,4.302736,4.147191,1.998646,0.000000,0.000000
0.010000,8.873840,11.636878,4.344308,4.167178,1.998646,-0.000000,0.000000
0.010000,8.915612,11.636878,4.386079,4.187164,1.998646,0.000000,0.000000
0.010000,8.957583,11.636878,4.428051,4.207150,1.998646,0.000000,0.000000
0.010000,8.999755,11.636878,4.470222,4.227137,1.998646,0.000000,0.000000
0.010000,9.042126,11.636878,4.512594,4.247123,1.998646,-0.000000,0.000000
0.010000,9.084697,11.636878,4.555165,4.267110,1.998646,0.000000,0.000000
0.010000,9.127468,11.636878,4.597936,4.287096,1.998646,-0.000000,0.000000
0.010000,9.170439,11.636878,4.640907,4.307083,1.998646,0.000000,0.000000
0.010000,9.213610,11.636878,4.684077,4.327069,1.998646,0.000000,0.000000
0.010000,9.256980,11.636878,4.727448,4.347056,1.998646,-0.000000,0.000000
0.010000,9.300551,11.636878,4.771019,4.367042,1.998646,0.000000,0.000000
0.010000,9.344321,11.636878,4.814789,4.387029,1.998646,-0.000000,0.000000
0.010000,9.388291,11.636878,4.858759,4.407015,1.998646,0.000000,0.000000
0.010000,9.432462,11.636878,4.902929,4.427002,1.998646,0.000000,0.000000
0.010000,9.476831,11.636878,4.947299,4.446988,1.998646,0.000000,0.000000
0.010000,9.521401,11.636878,4.991869,4.466974,1.998646,-0.000000,0.000000
0.010000,9.566171,11.636878,5.036639,4.486961,1.998646,0.000000,0.000000
0.010000,9.611140,11.636878,5.081608,4.506947,1.998646,0.000000,0.000000
0.010000,9.656310,11.636878,5.126778,4.526934,1.998646,-0.000000,0.000000
0.010000,9.701679,11.636878,5.172147,4.546920,1.998646,0.000000,0.000000
0.010000,9.747248,11.636878,5.217716,4.566907,1.998646,-0.000000,0.000000
0.010000,9.793017,11.636878,5.263485,4.586893,1.998646,0.000000,0.000000
0.010000,9.838986,11.636878,5.309454,4.606880,1.998646,0.000000,0.000000
0.010000,9.885155,11.636878,5.355623,4.626866,1.998646,-0.000000,0.000000
0.010000,9.931523,11.636878,5.401991,4.646853,1.998646,0.000000,0.000000
0.010000,9.978092,11.636878,5.448560,4.666839,1.998646,0.000000,0.000000
0.010000,10.024860,11.636878,5.495328,4.686826,1.998646,0.000000,0.000000
0.010000,10.063542,11.636892,5.542296,4.706812,1.998646,-0.000000,0.001519
0.010000,10.110710,11.637058,5.589464,4.726798,1.998646,0.000000,0.005540
0.010000,10.158076,11.637415,5.636832,4.746785,1.998646,-0.000000,0.009536
0.010000,10.205641,11.637964,5.684400,4.766771,1.998646,0.000000,0.013508
0.010000,10.253403,11.638703,5.732168,4.786758,1.998646,-0.000000,0.017454
0.010000,10.301361,11.639635,5.780135,4.806744,1.998646,0.000000,0.021373
0.010000,10.349516,11.640758,5.828302,4.826731,1.998646,0.000000,0.025264
0.010000,10.397865,11.642073,5.876670,4.846717,1.998646,0.000000,0.029127
0.010000,10.446409,11.643581,5.925237,4.866704,1.998646,0.000000,0.032961
0.010000,10.495146,11.645281,5.974004,4.886690,1.998646,-0.000000,0.036764
0.010000,10.544076,11.647173,6.022971,4.906677,1.998646,0.000000,0.040536
0.010000,10.593199,11.649258,6.072137,4.926663,1.998646,-0.000000,0.044276
0.010000,10.642513,11.651534,6.121504,4.946650,1.998646,0.000000,0.047983
0.010000,10.692017,11.654003,6.171070,4.966636,1.998646,-0.000000,0.051656
0.010000,10.741713,11.656663,6.220837,4.986622,1.998646,0.000000,0.055294
0.010000,10.791597,11.659515,6.270803,5.006609,1.998646,0.000000,0.058896
0.010000,10.841671,11.662557,6.320969,5.026595,1.998646,-0.000000,0.062462
0.010000,10.891933,11.665790,6.371335,5.046582,1.998646,0.000000,0.065991
0.010000,10.942383,11.669213,6.421900,5.066568,1.998646,0.000000,0.069482
0.010000,10.993020,11.672825,6.472666,5.086555,1.998646,0.000000,0.072933
0.010000,11.043843,11.676625,6.523631,5.106541,1.998646,-0.000000,0.076345
0.010000,11.094853,11.680614,6.574797,5.126528,1.998646,0.000000,0.079716
0.010000,11.146048,11.684790,6.626162,5.146514,1.998646,-0.000000,0.083045
0.010000,11.197428,11.689152,6.677727,5.166501,1.998646,0.000000,0.086332
0.010000,11.248993,11.693699,6.729492,5.186487,1.998646,0.000000,0.089576
0.010000,11.300742,11.698431,6.781457,5.206474,1.998646,-0.000000,0.092776
0.010000,11.352674,11.703345,6.833621,5.226460,1.998646,0.000000,0.095931
0.010000,11.404732,11.708437,6.885928,5.234833,0.837325,-116.132117,0.099037
0.010000,11.456759,11.713686,6.938218,5.223220,-1.161321,-199.864629,0.102084
0.010000,11.508611,11.719076,6.990350,5.203234,-1.998646,-83.732512,0.105064
0.010000,11.560249,11.724598,7.042283,5.183247,-1.998646,0.000000,0.107976
0.010000,11.611673,11.730247,7.094015,5.163261,-1.998646,0.000000,0.110820
0.010000,11.662881,11.736017,7.145548,5.143274,-1.998646,0.000000,0.113596
0.010000,11.713875,11.741905,7.196881,5.123288,-1.998646,-0.000000,0.116305
0.010000,11.764655,11.747906,7.248014,5.103301,-1.998646,0.000000,0.118947
0.010000,11.815220,11.754015,7.298947,5.083315,-1.998646,-0.000000,0.121524
0.010000,11.865571,11.760229,7.349680,5.063328,-1.998646,0.000000,0.124035
0.010000,11.915709,11.766542,7.400214,5.043342,-1.998646,-0.000000,0.126482
0.010000,11.965632,11.772951,7.450547,5.023355,-1.998646,0.000000,0.128865
0.010000,12.015343,11.779452,7.500681,5.003369,-1.998646,0.000000,0.131184
0.010000,12.064840,11.786040,7.550614,4.983383,-1.998646,0.000000,0.133441
0.010000,12.114125,11.792711,7.600348,4.963396,-1.998646,-0.000000,0.135635
0.010000,12.163196,11.799461,7.649882,4.943410,-1.998646,0.000000,0.137768
0.010000,12.212056,11.806287,7.699216,4.923423,-1.998646,0.000000,0.139840
0.010000,12.260704,11.813185,7.748351,4.903437,-1.998646,-0.000000,0.141852
0.010000,12.309140,11.820151,7.797285,4.883450,-1.998646,0.000000,0.143804
0.010000,12.357365,11.827181,7.846020,4.863464,-1.998646,-0.000000,0.145697
0.010000,12.405379,11.834271,7.894554,4.843477,-1.998646,0.000000,0.147532
0.010000,12.453182,11.841419,7.942889,4.823491,-1.998646,-0.000000,0.149308
0.010000,12.500775,11.848620,7.991024,4.803504,-1.998646,0.000000,0.151028
0.010000,12.548159,11.855872,8.038959,4.783518,-1.998646,0.000000,0.152692
0.010000,12.595333,11.863171,8.086695,4.763531,-1.998646,0.000000,0.154299
0.010000,12.642298,11.870513,8.134230,4.743545,-1.998646,0.000000,0.155851
0.010000,12.689054,11.877896,8.181566,4.723559,-1.998646,-0.000000,0.157349
0.010000,12.735602,11.885315,8.228701,4.703572,-1.998646,0.000000,0.158792
0.010000,12.781942,11.892770,8.275637,4.683586,-1.998646,-0.000000,0.160182
0.010000,12.828075,11.900255,8.322373,4.663599,-1.998646,0.000000,0.161520
0.010000,12.874000,11.907768,8.368909,4.643613,-1.998646,-0.000000,0.162805
0.010000,12.919719,11.915307,8.415245,4.623626,-1.998646,0.000000,0.164039
0.010000,12.965231,11.922869,8.461381,4.603640,-1.998646,0.000000,0.165222
0.010000,13.010538,11.930450,8.507318,4.583653,-1.998646,-0.000000,0.166354
0.010000,13.055639,11.938048,8.553055,4.563667,-1.998646,0.000000,0.167437
0.010000,13.100535,11.945660,8.598591,4.543680,-1.998646,0.000000,0.168471
0.010000,13.145226,11.953284,8.643928,4.523694,-1.998646,0.000000,0.169457
0.010000,13.189713,11.960917,8.689065,4.503707,-1.998646,-0.000000,0.170394
0.010000,13.233996,11.968557,8.734002,4.483721,-1.998646,0.000000,0.171284
0.010000,13.278075,11.976201,8.778740,4.463734,-1.998646,-0.000000,0.172128
0.010000,13.321952,11.983847,8.823277,4.443748,-1.998646,0.000000,0.172925
0.010000,13.365625,11.991493,8.867615,4.423762,-1.998646,0.000000,0.173677
0.010000,13.409096,11.999136,8.911752,4.403775,-1.998646,-0.000000,0.174384
0.010000,13.452365,12.006773,8.955690,4.383789,-1.998646,0.000000,0.175046
0.010000,13.495432,12.014404,8.999428,4.363802,-1.998646,0.000000,0.175665
0.010000,13.538298,12.022025,9.042966,4.343816,-1.998646,0.000000,0.176240
0.010000,13.580963,12.029635,9.086304,4.323829,-1.998646,-0.000000,0.176773
0.010000,13.623427,12.037232,9.129443,4.303843,-1.998646,0.000000,0.177264
0.010000,13.665691,12.044813,9.172381,4.283856,-1.998646,-0.000000,0.177713
0.010000,13.707755,12.052377,9.215120,4.263870,-1.998646,0.000000,0.178122
0.010000,13.749619,12.059922,9.257659,4.243883,-1.998646,0.000000,0.178489
0.010000,13.791284,12.067446,9.299997,4.223897,-1.998646,-0.000000,0.178817
0.010000,13.832750,12.074947,9.342137,4.203910,-1.998646,0.000000,0.179106
0.010000,13.874017,12.082424,9.384076,4.183924,-1.998646,-0.000000,0.179356
0.010000,13.915086,12.089875,9.425815,4.163938,-1.998646,0.000000,0.179567
0.010000,13.955957,12.097297,9.467354,4.143951,-1.998646,0.000000,0.179741
0.010000,13.996630,12.104691,9.508694,4.123965,-1.998646,0.000000,0.179878
0.010000,14.037106,12.112053,9.549834,4.103978,-1.998646,-0.000000,0.179978
0.010000,14.077384,12.119383,9.590774,4.083992,-1.998646,0.000000,0.180042
0.010000,14.117466,12.126679,9.631514,4.064005,-1.998646,0.000000,0.180071
0.010000,14.157350,12.133940,9.672054,4.044019,-1.998646,-0.000000,0.180064
0.010000,14.197038,12.141164,9.712394,4.024032,-1.998646,0.000000,0.180023
0.010000,14.236530,12.148350,9.752534,4.004046,-1.998646,-0.000000,0.179947
0.010000,14.275826,12.155496,9.792475,3.984059,-1.998646,0.000000,0.179838
0.010000,14.314927,12.162602,9.832216,3.964073,-1.998646,-0.000000,0.179697
0.010000,14.353831,12.169666,9.871756,3.944086,-1.998646,0.000000,0.179522
0.010000,14.392541,12.176687,9.911097,3.924100,-1.998646,0.000000,0.179316
0.010000,14.431055,12.183663,9.950238,3.904114,-1.998646,-0.000000,0.179078
0.010000,14.469374,12.190594,9.989180,3.884127,-1.998646,0.000000,0.178809
0.010000,14.507499,12.197479,10.027921,3.864141,-1.998646,-0.000000,0.178509
0.010000,14.545429,12.204317,10.066462,3.844154,-1.998646,0.000000,0.178179
0.010000,14.583165,12.211105,10.104804,3.824168,-1.998646,-0.000000,0.177820
0.010000,14.620707,12.217845,10.142946,3.804181,-1.998646,0.000000,0.177432
0.010000,14.658054,12.224534,10.180888,3.784195,-1.998646,-0.000000,0.177015
0.010000,14.695208,12.231172,10.218630,3.764208,-1.998646,0.000000,0.176570
0.010000,14.732168,12.237758,10.256172,3.744222,-1.998646,0.000000,0.176097
0.010000,14.768934,12.244291,10.293514,3.724235,-1.998646,-0.000000,0.175597
0.010000,14.805507,12.250770,10.330656,3.704249,-1.998646,0.000000,0.175070
0.010000,14.841887,12.257194,10.367599,3.684262,-1.998646,-0.000000,0.174517
0.010000,14.878073,12.263564,10.404342,3.664276,-1.998646,0.000000,0.173938
0.010000,14.914067,12.269877,10.440885,3.644290,-1.998646,0.000000,0.173334
0.010000,14.949867,12.276134,10.477227,3.624303,-1.998646,0.000000,0.172705
0.010000,14.985474,12.282333,10.513371,3.604317,-1.998646,-0.000000,0.172052
0.010000,15.020889,12.288475,10.549314,3.584330,-1.998646,0.000000,0.171374
0.010000,15.056111,12.294558,10.585057,3.564344,-1.998646,0.000000,0.170673
0.010000,15.091140,12.300583,10.620601,3.544357,-1.998646,-0.000000,0.169949
0.010000,15.125977,12.306547,10.655944,3.524371,-1.998646,0.000000,0.169202
0.010000,15.160621,12.312452,10.691088,3.504384,-1.998646,-0.000000,0.168433
0.010000,15.195073,12.318297,10.726032,3.484398,-1.998646,0.000000,0.167643
0.010000,15.229332,12.324080,10.760776,3.464411,-1.998646,-0.000000,0.166831
0.010000,15.263399,12.329802,10.795320,3.444425,-1.998646,0.000000,0.165998
0.010000,15.297273,12.335463,10.829665,3.424438,-1.998646,-0.000000,0.165145
0.010000,15.330956,12.341061,10.863809,3.404452,-1.998646,0.000000,0.164271
0.010000,15.364446,12.346598,10.897754,3.384465,-1.998646,0.000000,0.163379
0.010000,15.397744,12.352071,10.931498,3.364479,-1.998646,-0.000000,0.162467
0.010000,15.430849,12.357482,10.965043,3.344493,-1.998646,0.000000,0.161536
0.010000,15.463763,12.362829,10.998388,3.324506,-1.998646,0.000000,0.160587
0.010000,15.496484,12.368113,11.031533,3.304520,-1.998646,0.000000,0.159620
0.010000,15.529013,12.373334,11.064479,3.284533,-1.998646,-0.000000,0.158635
0.010000,15.561350,12.378491,11.097224,3.264547,-1.998646,0.000000,0.157634
0.010000,15.593494,12.383583,11.129769,3.244560,-1.998646,-0.000000,0.156616
0.010000,15.625447,12.388612,11.162115,3.224574,-1.998646,0.000000,0.155582
0.010000,15.657207,12.393577,11.194261,3.204587,-1.998646,0.000000,0.154531
0.010000,15.688775,12.398477,11.226207,3.184601,-1.998646,-0.000000,0.153466
0.010000,15.720150,12.403313,11.257953,3.164614,-1.998646,0.000000,0.152385
0.010000,15.751334,12.408084,11.289499,3.144628,-1.998646,-0.000000,0.151290
0.010000,15.782325,12.412791,11.320846,3.124641,-1.998646,0.000000,0.150181
0.010000,15.813123,12.417434,11.351992,3.104655,-1.998646,-0.000000,0.149058
0.010000,15.843729,12.422013,11.382939,3.084669,-1.998646,0.000000,0.147921
0.010000,15.874143,12.426527,11.413685,3.064682,-1.998646,-0.000000,0.146772
0.010000,15.904364,12.430977,11.444232,3.044696,-1.998646,0.000000,0.145610
0.010000,15.934392,12.435362,11.474579,3.024709,-1.998646,-0.000000,0.144435
0.010000,15.964228,12.439684,11.504726,3.004723,-1.998646,0.000000,0.143249
0.010000,15.993871,12.443941,11.534674,2.984736,-1.998646,0.000000,0.142052
0.010000,16.023321,12.448135,11.564421,2.964750,-1.998646,-0.000000,0.140843
0.010000,16.052579,12.452265,11.593969,2.944763,-1.998646,0.000000,0.139624
0.010000,16.081643,12.456332,11.623316,2.924777,-1.998646,-0.000000,0.138394
0.010000,16.110515,12.460335,11.652464,2.904790,-1.998646,0.000000,0.137155
0.010000,16.139194,12.464275,11.681412,2.884804,-1.998646,-0.000000,0.135906
0.010000,16.167679,12.468152,11.710160,2.864817,-1.998646,0.000000,0.134648
0.010000,16.195971,12.471967,11.738709,2.844831,-1.998646,0.000000,0.133381
0.010000,16.224070,12.475719,11.767057,2.824845,-1.998646,-0.000000,0.132105
0.010000,16.251976,12.479409,11.795206,2.804858,-1.998646,0.000000,0.130822
0.010000,16.279688,12.483037,11.823154,2.784872,-1.998646,-0.000000,0.129531
0.010000,16.307207,12.486603,11.850903,2.764885,-1.998646,0.000000,0.128232
0.010000,16.334532,12.490108,11.878452,2.744899,-1.998646,-0.000000,0.126927
0.010000,16.361663,12.493552,11.905801,2.724912,-1.998646,0.000000,0.125615
0.010000,16.388601,12.496936,11.932950,2.704926,-1.998646,-0.000000,0.124297
0.010000,16.415344,12.500260,11.959899,2.684939,-1.998646,0.000000,0.122973
0.010000,16.441894,12.503523,11.986649,2.664953,-1.998646,0.000000,0.121643
0.010000,16.468249,12.506727,12.013198,2.644966,-1.998646,-0.000000,0.120308
0.010000,16.494411,12.509872,12.039548,2.624980,-1.998646,0.000000,0.118968
0.010000,16.520378,12.512958,12.065698,2.604993,-1.998646,0.000000,0.117624
0.010000,16.546151,12.515986,12.091648,2.585007,-1.998646,-0.000000,0.116276
0.010000,16.571729,12.518956,12.117398,2.565021,-1.998646,0.000000,0.114924
0.010000,16.597113,12.521869,12.142949,2.545034,-1.998646,0.000000,0.113568
0.010000,16.622302,12.524725,12.168299,2.525048,-1.998646,0.000000,0.112209
0.010000,16.647296,12.527524,12.193449,2.505061,-1.998646,-0.000000,0.110848
0.010000,16.672095,12.530267,12.218400,2.485075,-1.998646,0.000000,0.109484
0.010000,16.696700,12.532955,12.243151,2.465088,-1.998646,0.000000,0.108117
0.010000,16.721109,12.535587,12.267702,2.445102,-1.998646,0.000000,0.106749
0.010000,16.745323,12.538165,12.292053,2.425115,-1.998646,0.000000,0.105380
0.010000,16.769342,12.540689,12.316204,2.405129,-1.998646,0.000000,0.104009
0.010000,16.793166,12.543160,12.340156,2.385142,-1.998646,-0.000000,0.102638
0.010000,16.816794,12.545577,12.363907,2.365156,-1.998646,0.000000,0.101265
0.010000,16.840227,12.547942,12.387459,2.345169,-1.998646,0.000000,0.099893
0.010000,16.863464,12.550255,12.410810,2.325183,-1.998646,0.000000,0.098521
0.010000,16.886505,12.552516,12.433962,2.305197,-1.998646,0.000000,0.097149
0.010000,16.909350,12.554727,12.456914,2.285210,-1.998646,-0.000000,0.095778
0.010000,16.932000,12.556887,12.479667,2.265224,-1.998646,0.000000,0.094407
0.010000,16.954453,12.558998,12.502219,2.245237,-1.998646,-0.000000,0.093038
0.010000,16.976710,12.561059,12.524571,2.225251,-1.998646,0.000000,0.091671
0.010000,16.998771,12.563072,12.546724,2.205264,-1.998646,0.000000,0.090305
0.010000,17.020636,12.565037,12.568677,2.185278,-1.998646,-0.000000,0.088942
0.010000,17.042304,12.566954,12.590429,2.165291,-1.998646,0.000000,0.087581
0.010000,17.063775,12.568825,12.611982,2.145305,-1.998646,0.000000,0.086223
0.010000,17.085050,12.570649,12.633336,2.125318,-1.998646,0.000000,0.084868
0.010000,17.106129,12.572428,12.654489,2.105332,-1.998646,0.000000,0.083516
0.010000,17.127010,12.574162,12.675442,2.085345,-1.998646,0.000000,0.082167
0.010000,17.147695,12.575852,12.696196,2.065359,-1.998646,-0.000000,0.080823
0.010000,17.168183,12.577497,12.716749,2.045372,-1.998646,0.000000,0.079483
0.010000,17.188473,12.579100,12.737103,2.025386,-1.998646,0.000000,0.078147
0.010000,17.208567,12.580660,12.757257,2.005400,-1.998646,0.000000,0.076815
0.010000,17.228463,12.582178,12.777211,1.985413,-1.998646,0.000000,0.075489
0.010000,17.248162,12.583655,12.796965,1.965427,-1.998646,0.000000,0.074168
0.010000,17.267663,12.585091,12.816520,1.945440,-1.998646,-0.000000,0.072852
0.010000,17.286967,12.586487,12.835874,1.925454,-1.998646,0.000000,0.071542
0.010000,17.306074,12.587844,12.855029,1.905467,-1.998646,0.000000,0.070238
0.010000,17.324983,12.589162,12.873983,1.885481,-1.998646,-0.000000,0.068940
0.010000,17.343694,12.590442,12.892738,1.865494,-1.998646,0.000000,0.067648
0.010000,17.362207,12.591684,12.911293,1.845508,-1.998646,0.000000,0.066363
0.010000,17.380523,12.592889,12.929648,1.825521,-1.998646,-0.000000,0.065085
0.010000,17.398640,12.594059,12.947804,1.805535,-1.998646,0.000000,0.063814
0.010000,17.416560,12.595192,12.965759,1.785548,-1.998646,-0.000000,0.062551
0.010000,17.434281,12.596291,12.983515,1.765562,-1.998646,0.000000,0.061295
0.010000,17.451805,12.597356,13.001070,1.745576,-1.998646,0.000000,0.060047
0.010000,17.469130,12.598387,13.018426,1.725589,-1.998646,-0.000000,0.058807
0.010000,17.486257,12.599384,13.035582,1.705603,-1.998646,0.000000,0.057575
0.010000,17.503186,12.600350,13.052538,1.685616,-1.998646,0.000000,0.056352
0.010000,17.519916,12.601283,13.069295,1.665630,-1.998646,-0.000000,0.055138
0.010000,17.536448,12.602186,13.085851,1.645643,-1.998646,0.000000,0.053932
0.010000,17.552781,12.603058,13.102207,1.625657,-1.998646,-0.000000,0.052736
0.010000,17.568915,12.603900,13.118364,1.605670,-1.998646,0.000000,0.051549
0.010000,17.584851,12.604713,13.134321,1.585684,-1.998646,-0.000000,0.050371
0.010000,17.600589,12.605497,13.150078,1.565697,-1.998646,0.000000,0.049203
0.010000,17.616127,12.606253,13.165635,1.545711,-1.998646,-0.000000,0.048046
0.010000,17.631467,12.606982,13.180992,1.525724,-1.998646,0.000000,0.046898
0.010000,17.646608,12.607684,13.196149,1.505738,-1.998646,-0.000000,0.045761
0.010000,17.661551,12.608359,13.211107,1.485752,-1.998646,0.000000,0.044634
0.010000,17.676294,12.609010,13.225864,1.465765,-1.998646,-0.000000,0.043518
0.010000,17.690838,12.609635,13.240422,1.445779,-1.998646,0.000000,0.042412
0.010000,17.705183,12.610236,13.254780,1.425792,-1.998646,-0.000000,0.041318
0.010000,17.719330,12.610813,13.268938,1.405806,-1.998646,0.000000,0.040235
0.010000,17.733277,12.611367,13.282896,1.385819,-1.998646,0.000000,0.039164
0.010000,17.747025,12.611898,13.296654,1.365833,-1.998646,0.000000,0.038104
0.010000,17.760574,12.612408,13.310213,1.345846,-1.998646,-0.000000,0.037056
0.010000,17.773923,12.612896,13.323571,1.325860,-1.998646,0.000000,0.036020
0.010000,17.787073,12.613363,13.336730,1.305873,-1.998646,-0.000000,0.034996
0.010000,17.800025,12.613810,13.349689,1.285887,-1.998646,0.000000,0.033984
0.010000,17.812776,12.614237,13.362448,1.265900,-1.998646,0.000000,0.032984
0.010000,17.825329,12.614645,13.375007,1.245914,-1.998646,-0.000000,0.031997
0.010000,17.837682,12.615034,13.387366,1.225928,-1.998646,0.000000,0.031023
0.010000,17.849836,12.615406,13.399525,1.205941,-1.998646,-0.000000,0.030062
0.010000,17.861790,12.615759,13.411485,1.185955,-1.998646,0.000000,0.029114
0.010000,17.873545,12.616096,13.423244,1.165968,-1.998646,0.000000,0.028179
0.010000,17.885100,12.616417,13.434804,1.145982,-1.998646,-0.000000,0.027257
0.010000,17.896456,12.616721,13.446164,1.125995,-1.998646,0.000000,0.026348
0.010000,17.907612,12.617010,13.457324,1.106009,-1.998646,-0.000000,0.025454
0.010000,17.918569,12.617284,13.468284,1.086022,-1.998646,0.000000,0.024573
0.010000,17.929326,12.617544,13.479044,1.066036,-1.998646,0.000000,0.023705
0.010000,17.939883,12.617790,13.489605,1.046049,-1.998646,-0.000000,0.022852
0.010000,17.950241,12.618022,13.499965,1.026063,-1.998646,0.000000,0.022013
0.010000,17.960400,12.618242,13.510126,1.006076,-1.998646,-0.000000,0.021188
0.010000,17.970358,12.618449,13.520087,0.986090,-1.998646,0.000000,0.020377
0.010000,17.980117,12.618644,13.529848,0.966103,-1.998646,-0.000000,0.019581
0.010000,17.989677,12.618827,13.539409,0.946117,-1.998646,-0.000000,0.018799
0.010000,17.999036,12.619000,13.548770,0.926131,-1.998646,0.000000,0.018032
0.010000,18.008196,12.619161,13.557932,0.906144,-1.998646,0.000000,0.017280
0.010000,18.017157,12.619313,13.566893,0.886158,-1.998646,-0.000000,0.016542
0.010000,18.025917,12.619455,13.575655,0.866171,-1.998646,-0.000000,0.015820
0.010000,18.034478,12.619587,13.584216,0.846185,-1.998646,0.000000,0.015113
0.010000,18.042839,12.619710,13.592578,0.826198,-1.998646,0.000000,0.014421
0.010000,18.051000,12.619825,13.600740,0.806212,-1.998646,-0.000000,0.013744
0.010000,18.058961,12.619932,13.608703,0.786225,-1.998646,-0.000000,0.013082
0.010000,18.066723,12.620031,13.616465,0.766239,-1.998646,0.000000,0.012436
0.010000,18.074285,12.620123,13.624027,0.746252,-1.998646,0.000000,0.011806
0.010000,18.081647,12.620208,13.631390,0.726266,-1.998646,0.000000,0.011191
0.010000,18.088810,12.620286,13.638553,0.706279,-1.998646,-0.000000,0.010592
0.010000,18.095772,12.620357,13.645516,0.686293,-1.998646,0.000000,0.010009
0.010000,18.102535,12.620423,13.652279,0.666307,-1.998646,0.000000,0.009441
0.010000,18.109098,12.620483,13.658842,0.646320,-1.998646,0.000000,0.008890
0.010000,18.115461,12.620538,13.665205,0.626334,-1.998646,-0.000000,0.008355
0.010000,18.121624,12.620588,13.671368,0.606347,-1.998646,0.000000,0.007835
0.010000,18.127587,12.620633,13.677332,0.586361,-1.998646,0.000000,0.007332
0.010000,18.133351,12.620674,13.683096,0.566374,-1.998646,-0.000000,0.006845
0.010000,18.138914,12.620711,13.688659,0.546388,-1.998646,0.000000,0.006375
0.010000,18.144278,12.620744,13.694023,0.526401,-1.998646,0.000000,0.005921
0.010000,18.149442,12.620773,13.699187,0.506415,-1.998646,0.000000,0.005483
0.010000,18.154406,12.620799,13.704152,0.486428,-1.998646,0.000000,0.005062
0.010000,18.159171,12.620823,13.708916,0.466442,-1.998646,-0.000000,0.004657
0.010000,18.163735,12.620843,13.713480,0.446455,-1.998646,0.000000,0.004269
0.010000,18.168100,12.620861,13.717845,0.426469,-1.998646,-0.000000,0.003897
0.010000,18.172264,12.620876,13.722010,0.406483,-1.998646,0.000000,0.003542
0.010000,18.176229,12.620890,13.725975,0.386496,-1.998646,-0.000000,0.003204
0.010000,18.179994,12.620901,13.729740,0.366510,-1.998646,0.000000,0.002883
0.010000,18.183559,12.620911,13.733305,0.346523,-1.998646,-0.000000,0.002578
0.010000,18.186925,12.620919,13.736670,0.326537,-1.998646,0.000000,0.002291
0.010000,18.190090,12.620926,13.739836,0.306550,-1.998646,0.000000,0.002020
0.010000,18.193056,12.620931,13.742801,0.286564,-1.998646,-0.000000,0.001766
0.010000,18.195821,12.620936,13.745567,0.266577,-1.998646,0.000000,0.001529
0.010000,18.198387,12.620940,13.748133,0.246591,-1.998646,-0.000000,0.001309
0.010000,18.200753,12.620943,13.750499,0.226604,-1.998646,0.000000,0.001106
0.010000,18.202919,12.620945,13.752665,0.206618,-1.998646,0.000000,0.000921
0.010000,18.204886,12.620946,13.754631,0.186631,-1.998646,-0.000000,0.000752
0.010000,18.206652,12.620948,13.756398,0.166645,-1.998646,0.000000,0.000600
0.010000,18.208218,12.620948,13.757964,0.146659,-1.998646,0.000000,0.000466
0.010000,18.209585,12.620949,13.759331,0.126672,-1.998646,0.000000,0.000348
0.010000,18.210752,12.620949,13.760497,0.106686,-1.998646,0.000000,0.000248
0.010000,18.211719,12.620949,13.761464,0.086699,-1.998646,0.000000,0.000165
0.010000,18.212486,12.620950,13.762231,0.066713,-1.998646,0.000000,0.000099
0.010000,18.213053,12.620950,13.762799,0.046726,-1.998646,-0.000000,0.000050
0.010000,18.213420,12.620950,13.763166,0.026740,-1.998646,-0.000000,0.000019
0.010000,18.213596,12.620950,13.763342,0.008373,-1.836648,16.199803,0.000004
0.010000,18.213638,12.620950,13.763383,0.000000,-0.837325,99.932314,6.283185
0.010000,18.213638,12.620950,13.763383,0.000000,0.000000,83.732512,6.283185
