dt,x,y,position,velocity,acceleration,jerk,heading
0.010000,4.535043,10.721878,0.000050,0.009993,0.999323,99.932314,0.000000
0.010000,4.535043,10.721878,0.000050,0.000000,-0.999323,-199.864629,0.000000
0.010000,4.535043,10.721878,0.000050,0.000000,0.000000,99.932314,0.000000
0.010000,4.535043,10.721878,0.000050,0.000000,0.000000,0.000000,0.000000
0.010000,4.535043,10.721878,0.000050,0.000000,0.000000,0.000000,0.000000
0.010000,4.535043,10.721878,0.000050,0.000000,0.000000,0.000000,0.000000
0.010000,4.535043,10.721878,0.000050,0.000000,0.000000,0.000000,0.000000
0.010000,4.535179,10.721878,0.000185,0.013537,1.353750,135.374994,0.000000
0.010000,4.536777,10.721878,0.001784,0.159892,14.635420,1328.167043,0.000000
0.010000,4.538576,10.721878,0.003583,0.179878,1.998646,-1263.677408,0.000000
0.010000,4.540575,10.721878,0.005582,0.199865,1.998646,0.000000,0.000000
0.010000,4.542773,10.721878,0.007780,0.219851,1.998646,-0.000000,0.000000
0.010000,4.545172,10.721878,0.010179,0.239838,1.998646,0.000000,0.000000
0.010000,4.547770,10.721878,0.012777,0.259824,1.998646,0.000000,0.000000
0.010000,4.550568,10.721878,0.015575,0.279810,1.998646,-0.000000,0.000000
0.010000,4.553566,10.721878,0.018573,0.299797,1.998646,0.000000,0.000000
0.010000,4.556764,10.721878,0.021771,0.319783,1.998646,0.000000,0.000000
0.010000,4.560162,10.721878,0.025168,0.339770,1.998646,-0.000000,0.000000
0.010000,4.563759,10.721878,0.028766,0.359756,1.998646,0.000000,0.000000
0.010000,4.567557,10.721878,0.032563,0.379743,1.998646,-0.000000,0.000000
0.010000,4.571554,10.721878,0.036561,0.399729,1.998646,0.000000,0.000000
0.010000,4.575751,10.721878,0.040758,0.419716,1.998646,0.000000,0.000000
0.010000,4.580148,10.721878,0.045155,0.439702,1.998646,-0.000000,0.000000
0.010000,4.584745,10.721878,0.049752,0.459689,1.998646,0.000000,0.000000
0.010000,4.589542,10.721878,0.054549,0.479675,1.998646,-0.000000,0.000000
0.010000,4.594538,10.721878,0.059545,0.499662,1.998646,0.000000,0.000000
0.010000,4.599735,10.721878,0.064742,0.519648,1.998646,-0.000000,0.000000
0.010000,4.605131,10.721878,0.070138,0.539634,1.998646,0.000000,0.000000
0.010000,4.610727,10.721878,0.075734,0.559621,1.998646,0.000000,0.000000
0.010000,4.616523,10.721878,0.081530,0.579607,1.998646,-0.000000,0.000000
0.010000,4.622519,10.721878,0.087526,0.599594,1.998646,0.000000,0.000000
0.010000,4.628715,10.721878,0.093722,0.619580,1.998646,0.000000,0.000000
0.010000,4.635111,10.721878,0.100118,0.639567,1.998646,-0.000000,0.000000
0.010000,4.641706,10.721878,0.106713,0.659553,1.998646,0.000000,0.000000
0.010000,4.648502,10.721878,0.113509,0.679540,1.998646,-0.000000,0.000000
0.010000,4.655497,10.721878,0.120504,0.699526,1.998646,0.000000,0.000000
0.010000,4.662692,10.721878,0.127699,0.719513,1.998646,0.000000,0.000000
0.010000,4.670087,10.721878,0.135094,0.739499,1.998646,-0.000000,0.000000
0.010000,4.677682,10.721878,0.142689,0.759486,1.998646,0.000000,0.000000
0.010000,4.685477,10.721878,0.150484,0.779472,1.998646,-0.000000,0.000000
0.010000,4.693471,10.721878,0.158478,0.799459,1.998646,0.000000,0.000000
0.010000,4.701666,10.721878,0.166673,0.819445,1.998646,-0.000000,0.000000
0.010000,4.710060,10.721878,0.175067,0.839431,1.998646,0.000000,0.000000
0.010000,4.718654,10.721878,0.183661,0.859418,1.998646,0.000000,0.000000
0.010000,4.727448,10.721878,0.192455,0.879404,1.998646,-0.000000,0.000000
0.010000,4.736442,10.721878,0.201449,0.899391,1.998646,0.000000,0.000000
0.010000,4.745636,10.721878,0.210643,0.919377,1.998646,0.000000,0.000000
0.010000,4.755030,10.721878,0.220036,0.939364,1.998646,-0.000000,0.000000
0.010000,4.764623,10.721878,0.229630,0.959350,1.998646,0.000000,0.000000
0.010000,4.774416,10.721878,0.239423,0.979337,1.998646,-0.000000,0.000000
0.010000,4.784410,10.721878,0.249417,0.999323,1.998646,0.000000,0.000000
0.010000,4.794603,10.721878,0.259610,1.019310,1.998646,0.000000,0.000000
0.010000,4.804996,10.721878,0.270003,1.039296,1.998646,-0.000000,0.000000
0.010000,4.815589,10.721878,0.280595,1.059283,1.998646,0.000000,0.000000
0.010000,4.826381,10.721878,0.291388,1.079269,1.998646,0.000000,0.000000
0.010000,4.837374,10.721878,0.302381,1.099255,1.998646,0.000000,0.000000
0.010000,4.848566,10.721878,0.313573,1.119242,1.998646,-0.000000,0.000000
0.010000,4.859959,10.721878,0.324965,1.139228,1.998646,0.000000,0.000000
0.010000,4.871551,10.721878,0.336558,1.159215,1.998646,0.000000,0.000000
0.010000,4.883343,10.721878,0.348350,1.179201,1.998646,-0.000000,0.000000
0.010000,4.895335,10.721878,0.360341,1.199188,1.998646,0.000000,0.000000
0.010000,4.907526,10.721878,0.372533,1.219174,1.998646,0.000000,0.000000
0.010000,4.919918,10.721878,0.384925,1.239161,1.998646,-0.000000,0.000000
0.010000,4.932509,10.721878,0.397516,1.259147,1.998646,0.000000,0.000000
0.010000,4.945301,10.721878,0.410308,1.279134,1.998646,-0.000000,0.000000
0.010000,4.958292,10.721878,0.423299,1.299120,1.998646,0.000000,0.000000
0.010000,4.971483,10.721878,0.436490,1.319107,1.998646,0.000000,0.000000
0.010000,4.984874,10.721878,0.449881,1.339093,1.998646,-0.000000,0.000000
0.010000,4.998465,10.721878,0.463472,1.359079,1.998646,0.000000,0.000000
0.010000,5.012255,10.721878,0.477262,1.379066,1.998646,-0.000000,0.000000
0.010000,5.026246,10.721878,0.491253,1.399052,1.998646,0.000000,0.000000
0.010000,5.040436,10.721878,0.505443,1.419039,1.998646,-0.000000,0.000000
0.010000,5.054827,10.721878,0.519833,1.439025,1.998646,0.000000,0.000000
0.010000,5.069417,10.721878,0.534423,1.459012,1.998646,0.000000,0.000000
0.010000,5.084207,10.721878,0.549213,1.478998,1.998646,-0.000000,0.000000
0.010000,5.099196,10.721878,0.564203,1.498985,1.998646,0.000000,0.000000
0.010000,5.114386,10.721878,0.579393,1.518971,1.998646,0.000000,0.000000
0.010000,5.129776,10.721878,0.594783,1.538958,1.998646,-0.000000,0.000000
0.010000,5.145365,10.721878,0.610372,1.558944,1.998646,0.000000,0.000000
0.010000,5.161155,10.721878,0.626161,1.578931,1.998646,-0.000000,0.000000
0.010000,5.177144,10.721878,0.642151,1.598917,1.998646,0.000000,0.000000
0.010000,5.193333,10.721878,0.658340,1.618903,1.998646,0.000000,0.000000
0.010000,5.209722,10.721878,0.674728,1.638890,1.998646,0.000000,0.000000
0.010000,5.226310,10.721878,0.691317,1.658876,1.998646,-0.000000,0.000000
0.010000,5.243099,10.721878,0.708106,1.678863,1.998646,0.000000,0.000000
0.010000,5.260088,10.721878,0.725094,1.698849,1.998646,0.000000,0.000000
0.010000,5.277276,10.721878,0.742283,1.718836,1.998646,-0.000000,0.000000
0.010000,5.294664,10.721878,0.759671,1.738822,1.998646,0.000000,0.000000
0.010000,5.312252,10.721878,0.777259,1.758809,1.998646,0.000000,0.000000
0.010000,5.330040,10.721878,0.795047,1.778795,1.998646,-0.000000,0.000000
0.010000,5.348028,10.721878,0.813035,1.798782,1.998646,0.000000,0.000000
0.010000,5.366216,10.721878,0.831222,1.818768,1.998646,-0.000000,0.000000
0.010000,5.384603,10.721878,0.849610,1.838755,1.998646,0.000000,0.000000
0.010000,5.403191,10.721878,0.868197,1.858741,1.998646,0.000000,0.000000
0.010000,5.421978,10.721878,0.886985,1.878728,1.998646,-0.000000,0.000000
0.010000,5.440965,10.721878,0.905972,1.898714,1.998646,0.000000,0.000000
0.010000,5.460152,10.721878,0.925159,1.918700,1.998646,0.000000,0.000000
0.010000,5.479539,10.721878,0.944546,1.938687,1.998646,-0.000000,0.000000
0.010000,5.499126,10.721878,0.964132,1.958673,1.998646,0.000000,0.000000
0.010000,5.518912,10.721878,0.983919,1.978660,1.998646,0.000000,0.000000
0.010000,5.538899,10.721878,1.003906,1.998646,1.998646,-0.000000,0.000000
0.010000,5.559085,10.721878,1.024092,2.018633,1.998646,0.000000,0.000000
0.010000,5.579471,10.721878,1.044478,2.038619,1.998646,-0.000000,0.000000
0.010000,5.600057,10.721878,1.065064,2.058606,1.998646,-0.000000,0.000000
0.010000,5.620843,10.721878,1.085850,2.078592,1.998646,0.000000,0.000000
0.010000,5.641829,10.721878,1.106836,2.098579,1.998646,-0.000000,0.000000
0.010000,5.663015,10.721878,1.128021,2.118565,1.998646,0.000000,0.000000
0.010000,5.684400,10.721878,1.149407,2.138552,1.998646,0.000000,0.000000
0.010000,5.705985,10.721878,1.170992,2.158538,1.998646,-0.000000,0.000000
0.010000,5.727771,10.721878,1.192778,2.178524,1.998646,0.000000,0.000000
0.010000,5.749756,10.721878,1.214763,2.198511,1.998646,-0.000000,0.000000
0.010000,5.771941,10.721878,1.236948,2.218497,1.998646,0.000000,0.000000
0.010000,5.794326,10.721878,1.259333,2.238484,1.998646,0.000000,0.000000
0.010000,5.816910,10.721878,1.281917,2.258470,1.998646,0.000000,0.000000
0.010000,5.839695,10.721878,1.304702,2.278457,1.998646,-0.000000,0.000000
0.010000,5.862679,10.721878,1.327686,2.298443,1.998646,0.000000,0.000000
0.010000,5.885864,10.721878,1.350871,2.318430,1.998646,0.000000,0.000000
0.010000,5.909248,10.721878,1.374255,2.338416,1.998646,0.000000,0.000000
0.010000,5.932832,10.721878,1.397839,2.358403,1.998646,-0.000000,0.000000
0.010000,5.956616,10.721878,1.421623,2.378389,1.998646,0.000000,0.000000
0.010000,5.980599,10.721878,1.445606,2.398376,1.998646,-0.000000,0.000000
0.010000,6.004783,10.721878,1.469790,2.418362,1.998646,0.000000,0.000000
0.010000,6.029167,10.721878,1.494173,2.438348,1.998646,0.000000,0.000000
0.010000,6.053750,10.721878,1.518757,2.458335,1.998646,0.000000,0.000000
0.010000,6.078533,10.721878,1.543540,2.478321,1.998646,-0.000000,0.000000
0.010000,6.103516,10.721878,1.568523,2.498308,1.998646,0.000000,0.000000
0.010000,6.128699,10.721878,1.593706,2.518294,1.998646,-0.000000,0.000000
0.010000,6.154082,10.721878,1.619089,2.538281,1.998646,0.000000,0.000000
0.010000,6.179665,10.721878,1.644672,2.558267,1.998646,0.000000,0.000000
0.010000,6.205447,10.721878,1.670454,2.578254,1.998646,0.000000,0.000000
0.010000,6.231430,10.721878,1.696436,2.598240,1.998646,0.000000,0.000000
0.010000,6.257612,10.721878,1.722619,2.618227,1.998646,-0.000000,0.000000
0.010000,6.283994,10.721878,1.749001,2.638213,1.998646,0.000000,0.000000
0.010000,6.310576,10.721878,1.775583,2.658200,1.998646,-0.000000,0.000000
0.010000,6.337358,10.721878,1.802365,2.678186,1.998646,0.000000,0.000000
0.010000,6.364340,10.721878,1.829346,2.698172,1.998646,-0.000000,0.000000
0.010000,6.391521,10.721878,1.856528,2.718159,1.998646,0.000000,0.000000
0.010000,6.418903,10.721878,1.883909,2.738145,1.998646,0.000000,0.000000
0.010000,6.446484,10.721878,1.911491,2.758132,1.998646,-0.000000,0.000000
0.010000,6.474265,10.721878,1.939272,2.778118,1.998646,0.000000,0.000000
0.010000,6.502246,10.721878,1.967253,2.798105,1.998646,0.000000,0.000000
0.010000,6.530427,10.721878,1.995434,2.818091,1.998646,-0.000000,0.000000
0.010000,6.558808,10.721878,2.023815,2.838078,1.998646,0.000000,0.000000
0.010000,6.587389,10.721878,2.052395,2.858064,1.998646,0.000000,0.000000
0.010000,6.616169,10.721878,2.081176,2.878051,1.998646,-0.000000,0.000000
0.010000,6.645149,10.721878,2.110156,2.898037,1.998646,0.000000,0.000000
0.010000,6.674330,10.721878,2.139336,2.918024,1.998646,-0.000000,0.000000
0.010000,6.703710,10.721878,2.168717,2.938010,1.998646,0.000000,0.000000
0.010000,6.733290,10.721878,2.198297,2.957997,1.998646,0.000000,0.000000
0.010000,6.763070,10.721878,2.228076,2.977983,1.998646,-0.000000,0.000000
0.010000,6.793049,10.721878,2.258056,2.997969,1.998646,0.000000,0.000000
0.010000,6.823229,10.721878,2.288236,3.017956,1.998646,-0.000000,0.000000
0.010000,6.853608,10.721878,2.318615,3.037942,1.998646,0.000000,0.000000
0.010000,6.884187,10.721878,2.349194,3.057929,1.998646,-0.000000,0.000000
0.010000,6.914967,10.721878,2.379973,3.077915,1.998646,0.000000,0.000000
0.010000,6.945946,10.721878,2.410952,3.097902,1.998646,0.000000,0.000000
0.010000,6.977125,10.721878,2.442131,3.117888,1.998646,0.000000,0.000000
0.010000,7.008503,10.721878,2.473510,3.137875,1.998646,0.000000,0.000000
0.010000,7.040082,10.721878,2.505089,3.157861,1.998646,-0.000000,0.000000
0.010000,7.071860,10.721878,2.536867,3.177848,1.998646,-0.000000,0.000000
0.010000,7.103839,10.721878,2.568846,3.197834,1.998646,0.000000,0.000000
0.010000,7.136017,10.721878,2.601024,3.217821,1.998646,-0.000000,0.000000
0.010000,7.168395,10.721878,2.633402,3.237807,1.998646,0.000000,0.000000
0.010000,7.200973,10.721878,2.665980,3.257793,1.998646,-0.000000,0.000000
0.010000,7.233751,10.721878,2.698758,3.277780,1.998646,0.000000,0.000000
0.010000,7.266728,10.721878,2.731735,3.297766,1.998646,0.000000,0.000000
0.010000,7.299906,10.721878,2.764913,3.317753,1.998646,0.000000,0.000000
0.010000,7.333283,10.721878,2.798290,3.337739,1.998646,-0.000000,0.000000
0.010000,7.366861,10.721878,2.831867,3.357726,1.998646,0.000000,0.000000
0.010000,7.400638,10.721878,2.865645,3.377712,1.998646,-0.000000,0.000000
0.010000,7.434615,10.721878,2.899622,3.397699,1.998646,0.000000,0.000000
0.010000,7.468792,10.721878,2.933798,3.417685,1.998646,0.000000,0.000000
0.010000,7.503168,10.721878,2.968175,3.437672,1.998646,0.000000,0.000000
0.010000,7.537745,10.721878,3.002752,3.457658,1.998646,0.000000,0.000000
0.010000,7.572521,10.721878,3.037528,3.477645,1.998646,-0.000000,0.000000
0.010000,7.607498,10.721878,3.072504,3.497631,1.998646,0.000000,0.000000
0.010000,7.642674,10.721878,3.107681,3.517617,1.998646,-0.000000,0.000000
0.010000,7.678050,10.721878,3.143057,3.537604,1.998646,0.000000,0.000000
0.010000,7.713626,10.721878,3.178633,3.557590,1.998646,0.000000,0.000000
0.010000,7.749401,10.721878,3.214408,3.577577,1.998646,0.000000,0.000000
0.010000,7.785377,10.721878,3.250384,3.597563,1.998646,-0.000000,0.000000
0.010000,7.821553,10.721878,3.286559,3.617550,1.998646,-0.000000,0.000000
0.010000,7.857928,10.721878,3.322935,3.637536,1.998646,0.000000,0.000000
0.010000,7.894503,10.721878,3.359510,3.657523,1.998646,-0.000000,0.000000
0.010000,7.931278,10.721878,3.396285,3.677509,1.998646,-0.000000,0.000000
0.010000,7.968253,10.721878,3.433260,3.697496,1.998646,0.000000,0.000000
0.010000,8.005428,10.721878,3.470435,3.717482,1.998646,-0.000000,0.000000
0.010000,8.042803,10.721878,3.507810,3.737469,1.998646,0.000000,0.000000
0.010000,8.080377,10.721878,3.545384,3.757455,1.998646,0.000000,0.000000
0.010000,8.118152,10.721878,3.583159,3.777441,1.998646,-0.000000,0.000000
0.010000,8.156126,10.721878,3.621133,3.797428,1.998646,0.000000,0.000000
0.010000,8.194300,10.721878,3.659307,3.817414,1.998646,-0.000000,0.000000
0.010000,8.232674,10.721878,3.697681,3.837401,1.998646,0.000000,0.000000
0.010000,8.271248,10.721878,3.736255,3.857387,1.998646,0.000000,0.000000
0.010000,8.310022,10.721878,3.775029,3.877374,1.998646,-0.000000,0.000000
0.010000,8.348995,10.721878,3.814002,3.897360,1.998646,0.000000,0.000000
0.010000,8.388169,10.721878,3.853176,3.917347,1.998646,-0.000000,0.000000
0.010000,8.427542,10.721878,3.892549,3.937333,1.998646,0.000000,0.000000
0.010000,8.467115,10.721878,3.932122,3.957320,1.998646,-0.000000,0.000000
0.010000,8.506888,10.721878,3.971895,3.977306,1.998646,-0.000000,0.000000
0.010000,8.546861,10.721878,4.011868,3.997293,1.998646,0.000000,0.000000
0.010000,8.587034,10.721878,4.052041,4.017279,1.998646,-0.000000,0.000000
0.010000,8.627407,10.721878,4.092414,4.037266,1.998646,0.000000,0.000000
0.010000,8.667979,10.721878,4.132986,4.057252,1.998646,0.000000,0.000000
0.010000,8.708752,10.721878,4.173759,4.077238,1.998646,0.000000,0.000000
0.010000,8.749724,10.721878,4.214731,4.097225,1.998646,0.000000,0.000000
0.010000,8.790896,10.721878,4.255903,4.117211,1.998646,0.000000,0.000000
0.010000,8.832268,10.721878,4.297275,4.137198,1.998646,-0.000000,0.000000
0.010000,8.873840,10.721878,4.338847,4.157184,1.998646,0.000000,0.000000
0.010000,8.915612,10.721878,4.380618,4.177171,1.998646,-0.000000,0.000000
0.010000,8.957583,10.721878,4.422590,4.197157,1.998646,0.000000,0.000000
0.010000,8.999755,10.721878,4.464761,4.217144,1.998646,0.000000,0.000000
0.010000,9.042126,10.721878,4.507133,4.237130,1.998646,0.000000,0.000000
0.010000,9.084697,10.721878,4.549704,4.257117,1.998646,0.000000,0.000000
0.010000,9.127468,10.721878,4.592475,4.277103,1.998646,-0.000000,0.000000
0.010000,9.170439,10.721878,4.635446,4.297090,1.998646,0.000000,0.000000
0.010000,9.213610,10.721878,4.678617,4.317076,1.998646,-0.000000,0.000000
0.010000,9.256980,10.721878,4.721987,4.337062,1.998646,0.000000,0.000000
0.010000,9.300551,10.721878,4.765558,4.357049,1.998646,-0.000000,0.000000
0.010000,9.344321,10.721878,4.809328,4.377035,1.998646,0.000000,0.000000
0.010000,9.388291,10.721878,4.853298,4.397022,1.998646,-0.000000,0.000000
0.010000,9.432462,10.721878,4.897468,4.417008,1.998646,0.000000,0.000000
0.010000,9.476831,10.721878,4.941838,4.436995,1.998646,-0.000000,0.000000
0.010000,9.521401,10.721878,4.986408,4.456981,1.998646,0.000000,0.000000
0.010000,9.566171,10.721878,5.031178,4.476968,1.998646,-0.000000,0.000000
0.010000,9.611140,10.721878,5.076147,4.496954,1.998646,0.000000,0.000000
0.010000,9.656310,10.721878,5.121317,4.516941,1.998646,0.000000,0.000000
0.010000,9.701679,10.721878,5.166686,4.536927,1.998646,-0.000000,0.000000
0.010000,9.747248,10.721878,5.212255,4.556914,1.998646,0.000000,0.000000
0.010000,9.793017,10.721878,5.258024,4.576900,1.998646,-0.000000,0.000000
0.010000,9.838986,10.721878,5.303993,4.596886,1.998646,0.000000,0.000000
0.010000,9.885155,10.721878,5.350162,4.616873,1.998646,0.000000,0.000000
0.010000,9.931523,10.721878,5.396530,4.636859,1.998646,0.000000,0.000000
0.010000,9.978092,10.721878,5.443099,4.656846,1.998646,-0.000000,0.000000
0.010000,10.024860,10.721878,5.489867,4.676832,1.998646,0.000000,0.000000
0.010000,10.064932,10.721893,5.529939,4.007179,-66.965305,-6896.395079,0.001519
0.010000,10.115779,10.722072,5.580786,5.084689,107.751003,17471.630749,0.005540
0.010000,10.166802,10.722457,5.631811,5.102482,1.779288,-10597.171539,0.009536
0.010000,10.218000,10.723047,5.683012,5.120184,1.770151,-0.913649,0.013508
0.010000,10.269372,10.723843,5.734390,5.137804,1.762013,-0.813820,0.017454
0.010000,10.320916,10.724844,5.785944,5.155350,1.754585,-0.742758,0.021373
0.010000,10.372630,10.726050,5.837672,5.172808,1.745877,-0.870862,0.025264
0.010000,10.424513,10.727461,5.889574,5.190181,1.737269,-0.860805,0.029127
0.010000,10.476562,10.729078,5.941649,5.207472,1.729128,-0.814097,0.032961
0.010000,10.528777,10.730899,5.993895,5.224682,1.720996,-0.813190,0.036764
0.010000,10.581156,10.732925,6.046314,5.241811,1.712879,-0.811632,0.040536
0.010000,10.633698,10.735154,6.098902,5.258859,1.704785,-0.809469,0.044276
0.010000,10.686400,10.737587,6.151660,5.275826,1.696717,-0.806748,0.047983
0.010000,10.739261,10.740223,6.204588,5.292713,1.688682,-0.803513,0.051656
0.010000,10.792281,10.743061,6.257683,5.309520,1.680684,-0.799809,0.055294
0.010000,10.845456,10.746101,6.310945,5.326247,1.672727,-0.795681,0.058896
0.010000,10.898787,10.749341,6.364374,5.342895,1.664816,-0.791172,0.062462
0.010000,10.952271,10.752781,6.417969,5.359465,1.656952,-0.786325,0.065991
0.010000,11.005907,10.756420,6.471728,5.375956,1.649140,-0.781181,0.069482
0.010000,11.059694,10.760257,6.525652,5.392370,1.641383,-0.775781,0.072933
0.010000,11.113631,10.764291,6.579739,5.408707,1.633716,-0.766678,0.076345
0.010000,11.167715,10.768520,6.633989,5.424971,1.626404,-0.731144,0.079716
0.010000,11.221947,10.772943,6.688400,5.441155,1.618419,-0.798555,0.083045
0.010000,11.276324,10.777559,6.742973,5.457264,1.610886,-0.753249,0.086332
0.010000,11.330845,10.782367,6.797706,5.473299,1.603446,-0.744005,0.089576
0.010000,11.385510,10.787366,6.852599,5.489262,1.596348,-0.709815,0.092776
0.010000,11.440316,10.792552,6.907650,5.505148,1.588594,-0.775447,0.095931
0.010000,11.495203,10.797920,6.962799,5.514842,0.969421,-61.917274,0.099037
0.010000,11.550003,10.803450,7.017877,5.507850,-0.699243,-166.866383,0.102084
0.010000,11.604569,10.809122,7.072736,5.485934,-2.191556,-149.231365,0.105064
0.010000,11.658856,10.814927,7.127333,5.459658,-2.627606,-43.604913,0.107976
0.010000,11.712865,10.820859,7.181667,5.433435,-2.622332,0.527377,0.110820
0.010000,11.766598,10.826914,7.235740,5.407263,-2.617208,0.512388,0.113596
0.010000,11.820054,10.833086,7.289551,5.381144,-2.611858,0.535005,0.116305
0.010000,11.873235,10.839371,7.343102,5.355080,-2.606449,0.540845,0.118947
0.010000,11.926141,10.845763,7.396393,5.329070,-2.601007,0.544252,0.121524
0.010000,11.978773,10.852258,7.449424,5.303115,-2.595513,0.549432,0.124035
0.010000,12.031131,10.858851,7.502196,5.277215,-2.589953,0.555970,0.126482
0.010000,12.083218,10.865538,7.554710,5.251372,-2.584355,0.559808,0.128865
0.010000,12.135032,10.872314,7.606966,5.225584,-2.578723,0.563233,0.131184
0.010000,12.186576,10.879174,7.658964,5.199854,-2.573060,0.566256,0.133441
0.010000,12.237850,10.886114,7.710706,5.174180,-2.567371,0.568887,0.135635
0.010000,12.288856,10.893131,7.762192,5.148563,-2.561660,0.571137,0.137768
0.010000,12.339593,10.900219,7.813422,5.123004,-2.555930,0.573017,0.139840
0.010000,12.390063,10.907375,7.864397,5.097502,-2.550184,0.574538,0.141852
0.010000,12.440267,10.914595,7.915117,5.072058,-2.544427,0.575710,0.143804
0.010000,12.490206,10.921875,7.965584,5.046671,-2.538662,0.576545,0.145697
0.010000,12.539881,10.929211,8.015798,5.021343,-2.532891,0.577053,0.147532
0.010000,12.589292,10.936599,8.065758,4.996071,-2.527119,0.577244,0.149308
0.010000,12.638441,10.944036,8.115467,4.970858,-2.521347,0.577131,0.151028
0.010000,12.687329,10.951518,8.164924,4.945702,-2.515580,0.576724,0.152692
0.010000,12.735957,10.959041,8.214130,4.920604,-2.509849,0.573111,0.154299
0.010000,12.784325,10.966603,8.263085,4.895561,-2.504222,0.562684,0.155851
0.010000,12.832435,10.974199,8.311791,4.870578,-2.498353,0.586870,0.157349
0.010000,12.880287,10.981827,8.360248,4.845652,-2.492628,0.572577,0.158792
0.010000,12.927883,10.989483,8.408456,4.820782,-2.486989,0.563857,0.160182
0.010000,12.975223,10.997165,8.456415,4.795967,-2.481422,0.556744,0.161520
0.010000,13.022310,11.004868,8.504127,4.771212,-2.475576,0.584571,0.162805
0.010000,13.069142,11.012591,8.551592,4.746511,-2.470033,0.554334,0.164039
0.010000,13.115722,11.020329,8.598811,4.721866,-2.464511,0.552185,0.165222
0.010000,13.162051,11.028081,8.645784,4.697279,-2.458715,0.579616,0.166354
0.010000,13.208129,11.035844,8.692511,4.672745,-2.453446,0.526848,0.167437
0.010000,13.253958,11.043614,8.738994,4.648268,-2.447640,0.580581,0.168471
0.010000,13.299538,11.051390,8.785233,4.623845,-2.442353,0.528704,0.169457
0.010000,13.344870,11.059168,8.831227,4.599478,-2.436699,0.565440,0.170394
0.010000,13.389956,11.066947,8.876979,4.575163,-2.431444,0.525523,0.171284
0.010000,13.434796,11.074723,8.922488,4.550905,-2.425801,0.564215,0.172128
0.010000,13.479390,11.082494,8.967755,4.526698,-2.420712,0.508908,0.172925
0.010000,13.523741,11.090258,9.012780,4.502547,-2.415098,0.561461,0.173677
0.010000,13.567849,11.098013,9.057565,4.478448,-2.409892,0.520627,0.174384
0.010000,13.611715,11.105756,9.102109,4.454402,-2.404641,0.525083,0.175046
0.010000,13.655340,11.113485,9.146413,4.430409,-2.399279,0.536187,0.175665
0.010000,13.698724,11.121199,9.190478,4.406468,-2.394110,0.516854,0.176240
0.010000,13.741869,11.128894,9.234303,4.382578,-2.388985,0.512514,0.176773
0.010000,13.784775,11.136570,9.277891,4.358741,-2.383730,0.525475,0.177264
0.010000,13.827444,11.144224,9.321240,4.334955,-2.378617,0.511312,0.177713
0.010000,13.869875,11.151854,9.364353,4.311219,-2.373534,0.508321,0.178122
0.010000,13.912071,11.159459,9.407228,4.287534,-2.368522,0.501243,0.178489
0.010000,13.954031,11.167036,9.449867,4.263900,-2.363454,0.506808,0.178817
0.010000,13.995757,11.174584,9.492270,4.240315,-2.358449,0.500446,0.179106
0.010000,14.037250,11.182102,9.534438,4.216780,-2.353489,0.496015,0.179356
0.010000,14.078509,11.189587,9.576371,4.193295,-2.348559,0.492963,0.179567
0.010000,14.119536,11.197038,9.618069,4.169858,-2.343660,0.489905,0.179741
0.010000,14.160333,11.204454,9.659534,4.146470,-2.338792,0.486839,0.179878
0.010000,14.200898,11.211833,9.700765,4.123130,-2.333954,0.483769,0.179978
0.010000,14.241234,11.219173,9.741764,4.099839,-2.329147,0.480694,0.180042
0.010000,14.281341,11.226474,9.782530,4.076595,-2.324371,0.477617,0.180071
0.010000,14.321220,11.233733,9.823064,4.053399,-2.319626,0.474540,0.180064
0.010000,14.360871,11.240951,9.863366,4.030250,-2.314911,0.471463,0.180023
0.010000,14.400295,11.248124,9.903438,4.007148,-2.310227,0.468390,0.179947
0.010000,14.439493,11.255253,9.943279,3.984092,-2.305574,0.465322,0.179838
0.010000,14.478465,11.262335,9.982889,3.961083,-2.300925,0.464900,0.179697
0.010000,14.517213,11.269371,10.022271,3.938119,-2.296340,0.458495,0.179522
0.010000,14.555737,11.276358,10.061423,3.915201,-2.291778,0.456199,0.179316
0.010000,14.594037,11.283295,10.100346,3.892329,-2.287244,0.453375,0.179078
0.010000,14.632114,11.290183,10.139041,3.869502,-2.282707,0.453754,0.178809
0.010000,14.669969,11.297019,10.177508,3.846720,-2.278200,0.450681,0.178509
0.010000,14.707602,11.303803,10.215748,3.823982,-2.273795,0.440479,0.178179
0.010000,14.745014,11.310534,10.253761,3.801289,-2.269346,0.444902,0.177820
0.010000,14.782206,11.317210,10.291547,3.778640,-2.264868,0.447767,0.177432
0.010000,14.819178,11.323832,10.329108,3.756034,-2.260601,0.426781,0.177015
0.010000,14.855931,11.330398,10.366442,3.733472,-2.256143,0.445784,0.176570
0.010000,14.892465,11.336908,10.403552,3.710954,-2.251867,0.427578,0.176097
0.010000,14.928781,11.343361,10.440437,3.688478,-2.247561,0.430639,0.175597
0.010000,14.964879,11.349756,10.477097,3.666046,-2.243231,0.432959,0.175070
0.010000,15.000761,11.356093,10.513534,3.643655,-2.239040,0.419131,0.174517
0.010000,15.036425,11.362370,10.549747,3.621308,-2.234740,0.429971,0.173938
0.010000,15.071874,11.368588,10.585737,3.599002,-2.230565,0.417516,0.173334
0.010000,15.107108,11.374746,10.621504,3.576738,-2.226406,0.415840,0.172705
0.010000,15.142126,11.380843,10.657049,3.554517,-2.222123,0.428391,0.172052
0.010000,15.176930,11.386879,10.692373,3.532336,-2.218150,0.397213,0.171374
0.010000,15.211520,11.392853,10.727475,3.510197,-2.213881,0.426915,0.170673
0.010000,15.245896,11.398765,10.762356,3.488099,-2.209824,0.405677,0.169949
0.010000,15.280059,11.404614,10.797016,3.466040,-2.205826,0.399837,0.169202
0.010000,15.314010,11.410401,10.831456,3.444023,-2.201705,0.412159,0.168433
0.010000,15.347748,11.416124,10.865677,3.422047,-2.197589,0.411557,0.167643
0.010000,15.381275,11.421784,10.899678,3.400110,-2.193700,0.388871,0.166831
0.010000,15.414590,11.427380,10.933460,3.378213,-2.189697,0.400274,0.165998
0.010000,15.447695,11.432912,10.967024,3.356356,-2.185716,0.398166,0.165145
0.010000,15.480589,11.438379,11.000369,3.334539,-2.181719,0.399678,0.164271
0.010000,15.513273,11.443782,11.033497,3.312761,-2.177758,0.396076,0.163379
0.010000,15.545747,11.449121,11.066407,3.291022,-2.173916,0.384277,0.162467
0.010000,15.578013,11.454394,11.099100,3.269322,-2.170019,0.389635,0.161536
0.010000,15.610069,11.459602,11.131577,3.247661,-2.166144,0.387534,0.160587
0.010000,15.641917,11.464745,11.163837,3.226038,-2.162289,0.385436,0.159620
0.010000,15.673556,11.469823,11.195882,3.204453,-2.158456,0.383343,0.158635
0.010000,15.704988,11.474835,11.227711,3.182907,-2.154643,0.381258,0.157634
0.010000,15.736213,11.479782,11.259325,3.161398,-2.150852,0.379182,0.156616
0.010000,15.767230,11.484664,11.290724,3.139927,-2.147080,0.377119,0.155582
0.010000,15.798041,11.489480,11.321909,3.118494,-2.143330,0.375070,0.154531
0.010000,15.828646,11.494231,11.352880,3.097098,-2.139599,0.373039,0.153466
0.010000,15.859044,11.498916,11.383637,3.075740,-2.135831,0.376833,0.152385
0.010000,15.889237,11.503536,11.414181,3.054418,-2.132137,0.369408,0.151290
0.010000,15.919224,11.508091,11.444513,3.033133,-2.128515,0.362155,0.150181
0.010000,15.949006,11.512580,11.474632,3.011885,-2.124866,0.364958,0.149058
0.010000,15.978584,11.517005,11.504538,2.990672,-2.121235,0.363034,0.147921
0.010000,16.007957,11.521365,11.534233,2.969497,-2.117520,0.371596,0.146772
0.010000,16.037126,11.525660,11.563717,2.948358,-2.113953,0.356602,0.145610
0.010000,16.066092,11.529890,11.592989,2.927253,-2.110454,0.349979,0.144435
0.010000,16.094853,11.534056,11.622051,2.906185,-2.106842,0.361152,0.143249
0.010000,16.123412,11.538158,11.650903,2.885152,-2.103213,0.362872,0.142052
0.010000,16.151767,11.542196,11.679544,2.864154,-2.099849,0.336489,0.140843
0.010000,16.179920,11.546170,11.707976,2.843192,-2.096216,0.363271,0.139624
0.010000,16.207870,11.550080,11.736199,2.822264,-2.092788,0.342831,0.138394
0.010000,16.235619,11.553928,11.764213,2.801371,-2.089345,0.344227,0.137155
0.010000,16.263165,11.557712,11.792018,2.780512,-2.085821,0.352471,0.135906
0.010000,16.290510,11.561434,11.819615,2.759687,-2.082498,0.332222,0.134648
0.010000,16.317653,11.565094,11.847004,2.738897,-2.078991,0.350733,0.133381
0.010000,16.344595,11.568691,11.874185,2.718141,-2.075689,0.330175,0.132105
0.010000,16.371337,11.572227,11.901159,2.697418,-2.072281,0.340819,0.130822
0.010000,16.397878,11.575702,11.927926,2.676728,-2.068935,0.334593,0.129531
0.010000,16.424218,11.579116,11.954487,2.656072,-2.065663,0.327181,0.128232
0.010000,16.450358,11.582469,11.980842,2.635449,-2.062267,0.339600,0.126927
0.010000,16.476299,11.585762,12.006990,2.614858,-2.059062,0.320515,0.125615
0.010000,16.502040,11.588995,12.032933,2.594301,-2.055790,0.327173,0.124297
0.010000,16.527581,11.592169,12.058671,2.573775,-2.052514,0.327611,0.122973
0.010000,16.552923,11.595284,12.084204,2.553282,-2.049324,0.319038,0.121643
0.010000,16.578066,11.598341,12.109532,2.532821,-2.046124,0.320001,0.120308
0.010000,16.603010,11.601340,12.134656,2.512391,-2.042941,0.318274,0.118968
0.010000,16.627756,11.604281,12.159576,2.491994,-2.039789,0.315219,0.117624
0.010000,16.652303,11.607165,12.184292,2.471627,-2.036664,0.312551,0.116276
0.010000,16.676653,11.609992,12.208805,2.451292,-2.033547,0.311624,0.114924
0.010000,16.700804,11.612763,12.233115,2.430987,-2.030458,0.308958,0.113568
0.010000,16.724758,11.615479,12.257222,2.410713,-2.027392,0.306600,0.112209
0.010000,16.748514,11.618140,12.281127,2.390470,-2.024349,0.304258,0.110848
0.010000,16.772073,11.620746,12.304829,2.370256,-2.021330,0.301934,0.109484
0.010000,16.795435,11.623298,12.328330,2.350073,-2.018333,0.299632,0.108117
0.010000,16.818600,11.625796,12.351629,2.329919,-2.015360,0.297355,0.106749
0.010000,16.841568,11.628241,12.374727,2.309795,-2.012409,0.295107,0.105380
0.010000,16.864339,11.630634,12.397624,2.289700,-2.009480,0.292890,0.104009
0.010000,16.886915,11.632975,12.420320,2.269635,-2.006573,0.290708,0.102638
0.010000,16.909294,11.635264,12.442816,2.249598,-2.003687,0.288565,0.101265
0.010000,16.931477,11.637503,12.465112,2.229590,-2.000823,0.286464,0.099893
0.010000,16.953464,11.639692,12.487208,2.209610,-1.997978,0.284407,0.098521
0.010000,16.975256,11.641831,12.509105,2.189657,-1.995288,0.269012,0.097149
0.010000,16.996853,11.643920,12.530802,2.169733,-1.992423,0.286530,0.095778
0.010000,17.018254,11.645962,12.552301,2.149837,-1.989617,0.280625,0.094407
0.010000,17.039460,11.647955,12.573600,2.129968,-1.986856,0.276122,0.093038
0.010000,17.060472,11.649901,12.594702,2.110125,-1.984272,0.258351,0.091671
0.010000,17.081288,11.651800,12.615605,2.090309,-1.981601,0.267096,0.090305
0.010000,17.101910,11.653654,12.636310,2.070522,-1.978752,0.284939,0.088942
0.010000,17.122338,11.655461,12.656818,2.050759,-1.976250,0.250198,0.087581
0.010000,17.142572,11.657224,12.677128,2.031022,-1.973744,0.250604,0.086223
0.010000,17.162611,11.658943,12.697241,2.011313,-1.970830,0.291381,0.084868
0.010000,17.182457,11.660617,12.717157,1.991626,-1.968734,0.209600,0.083516
0.010000,17.202109,11.662249,12.736877,1.971968,-1.965777,0.295687,0.082167
0.010000,17.221567,11.663838,12.756400,1.952333,-1.963553,0.222381,0.080823
0.010000,17.240833,11.665386,12.775727,1.932724,-1.960889,0.266460,0.079483
0.010000,17.259905,11.666892,12.794859,1.913138,-1.958603,0.228524,0.078147
0.010000,17.278784,11.668358,12.813795,1.893579,-1.955939,0.266403,0.076815
0.010000,17.297470,11.669784,12.832535,1.874039,-1.953919,0.202051,0.075489
0.010000,17.315963,11.671170,12.851080,1.854529,-1.950996,0.292332,0.074168
0.010000,17.334264,11.672518,12.869431,1.835036,-1.949316,0.167932,0.072852
0.010000,17.352372,11.673828,12.887586,1.815571,-1.946488,0.282833,0.071542
0.010000,17.370289,11.675100,12.905548,1.796130,-1.944113,0.237471,0.070238
0.010000,17.388013,11.676335,12.923315,1.776705,-1.942531,0.158234,0.068940
0.010000,17.405545,11.677534,12.940888,1.757308,-1.939664,0.286697,0.067648
0.010000,17.422885,11.678698,12.958267,1.737934,-1.937466,0.219756,0.066363
0.010000,17.440034,11.679827,12.975453,1.718579,-1.935435,0.203108,0.065085
0.010000,17.456991,11.680921,12.992445,1.699244,-1.933567,0.186854,0.063814
0.010000,17.473757,11.681982,13.009245,1.679933,-1.931042,0.252508,0.062551
0.010000,17.490331,11.683010,13.025851,1.660644,-1.928961,0.208083,0.061295
0.010000,17.506715,11.684005,13.042265,1.641374,-1.926905,0.205535,0.060047
0.010000,17.522907,11.684968,13.058486,1.622126,-1.924875,0.203039,0.058807
0.010000,17.538909,11.685900,13.074515,1.602897,-1.922869,0.200596,0.057575
0.010000,17.554720,11.686802,13.090352,1.583688,-1.920887,0.198208,0.056352
0.010000,17.570341,11.687674,13.105997,1.564499,-1.918928,0.195878,0.055138
0.010000,17.585771,11.688516,13.121450,1.545329,-1.917003,0.192495,0.053932
0.010000,17.601012,11.689330,13.136712,1.526178,-1.915056,0.194738,0.052736
0.010000,17.616062,11.690115,13.151782,1.507046,-1.913197,0.185913,0.051549
0.010000,17.630922,11.690873,13.166662,1.487933,-1.911314,0.188284,0.050371
0.010000,17.645592,11.691604,13.181350,1.468839,-1.909462,0.185156,0.049203
0.010000,17.660072,11.692309,13.195848,1.449762,-1.907630,0.183209,0.048046
0.010000,17.674363,11.692988,13.210155,1.430704,-1.905817,0.181332,0.046898
0.010000,17.688465,11.693641,13.224271,1.411664,-1.904022,0.179526,0.045761
0.010000,17.702377,11.694271,13.238198,1.392641,-1.902244,0.177793,0.044634
0.010000,17.716100,11.694876,13.251934,1.373636,-1.900558,0.168621,0.043518
0.010000,17.729634,11.695458,13.265481,1.354640,-1.899548,0.101000,0.042412
0.010000,17.742979,11.696017,13.278837,1.335669,-1.897136,0.241149,0.041318
0.010000,17.756135,11.696554,13.292005,1.316715,-1.895426,0.170995,0.040235
0.010000,17.769102,11.697069,13.304982,1.297773,-1.894162,0.126453,0.039164
0.010000,17.781881,11.697563,13.317771,1.278844,-1.892964,0.119787,0.038104
0.010000,17.794472,11.698036,13.330370,1.259938,-1.890528,0.243591,0.037056
0.010000,17.806874,11.698489,13.342780,1.241042,-1.889628,0.089959,0.036020
0.010000,17.819088,11.698923,13.355002,1.222160,-1.888207,0.142084,0.034996
0.010000,17.831114,11.699338,13.367035,1.203301,-1.885848,0.235895,0.033984
0.010000,17.842951,11.699735,13.378879,1.184441,-1.886049,-0.020083,0.032984
0.010000,17.854601,11.700113,13.390536,1.165614,-1.882723,0.332578,0.031997
0.010000,17.866064,11.700475,13.402003,1.146782,-1.883169,-0.044546,0.031023
0.010000,17.877338,11.700819,13.413283,1.127983,-1.879940,0.322851,0.030062
0.010000,17.888425,11.701147,13.424375,1.109176,-1.880624,-0.068400,0.029114
0.010000,17.899325,11.701460,13.435279,1.090402,-1.877389,0.323545,0.028179
0.010000,17.910037,11.701757,13.445995,1.071627,-1.877557,-0.016845,0.027257
0.010000,17.920562,11.702039,13.456524,1.052872,-1.875514,0.204342,0.026348
0.010000,17.930900,11.702307,13.466865,1.034133,-1.873915,0.159874,0.025454
0.010000,17.941050,11.702561,13.477019,1.015390,-1.874283,-0.036729,0.024573
0.010000,17.951014,11.702801,13.486986,0.996674,-1.871576,0.270624,0.023705
0.010000,17.960791,11.703029,13.496766,0.977969,-1.870508,0.106864,0.022852
0.010000,17.970381,11.703244,13.506358,0.959266,-1.870318,0.019011,0.022013
0.010000,17.979785,11.703447,13.515764,0.940578,-1.868741,0.157635,0.021188
0.010000,17.989002,11.703639,13.524983,0.921905,-1.867315,0.142618,0.020377
0.010000,17.998033,11.703819,13.534016,0.903242,-1.866319,0.099555,0.019581
0.010000,18.006877,11.703989,13.542862,0.884589,-1.865342,0.097794,0.018799
0.010000,18.015535,11.704148,13.551521,0.865941,-1.864770,0.057142,0.018032
0.010000,18.024007,11.704298,13.559994,0.847305,-1.863626,0.114380,0.017280
0.010000,18.032292,11.704438,13.568281,0.828681,-1.862387,0.123942,0.016542
0.010000,18.040392,11.704569,13.576381,0.810066,-1.861471,0.091634,0.015820
0.010000,18.048305,11.704691,13.584296,0.791460,-1.860569,0.090154,0.015113
0.010000,18.056033,11.704806,13.592025,0.772864,-1.859682,0.088728,0.014421
0.010000,18.063575,11.704912,13.599567,0.754275,-1.858808,0.087356,0.013744
0.010000,18.070932,11.705010,13.606924,0.735696,-1.857948,0.086038,0.013082
0.010000,18.078102,11.705102,13.614096,0.717125,-1.857100,0.084772,0.012436
0.010000,18.085087,11.705187,13.621081,0.698562,-1.856265,0.083559,0.011806
0.010000,18.091887,11.705265,13.627881,0.680008,-1.855441,0.082397,0.011191
0.010000,18.098501,11.705337,13.634496,0.661457,-1.855058,0.038277,0.010592
0.010000,18.104930,11.705403,13.640925,0.642914,-1.854329,0.072851,0.010009
0.010000,18.111173,11.705464,13.647169,0.624382,-1.853192,0.113770,0.009441
0.010000,18.117232,11.705519,13.653227,0.605858,-1.852413,0.077896,0.008890
0.010000,18.123105,11.705570,13.659101,0.587342,-1.851643,0.076979,0.008355
0.010000,18.128793,11.705616,13.664789,0.568826,-1.851540,0.010307,0.007835
0.010000,18.134296,11.705658,13.670292,0.550314,-1.851170,0.036991,0.007332
0.010000,18.139614,11.705695,13.675610,0.531819,-1.849559,0.161101,0.006845
0.010000,18.144747,11.705729,13.680744,0.513329,-1.848954,0.060505,0.006375
0.010000,18.149695,11.705760,13.685692,0.494828,-1.850137,-0.118343,0.005921
0.010000,18.154459,11.705787,13.690456,0.476352,-1.847562,0.257529,0.005483
0.010000,18.159038,11.705811,13.695034,0.457875,-1.847783,-0.022140,0.005062
0.010000,18.163432,11.705832,13.699428,0.439396,-1.847877,-0.009393,0.004657
0.010000,18.167641,11.705851,13.703638,0.420938,-1.845790,0.208686,0.004269
0.010000,18.171665,11.705868,13.707662,0.402460,-1.847784,-0.199355,0.003897
0.010000,18.175506,11.705882,13.711502,0.384015,-1.844465,0.331864,0.003542
0.010000,18.179161,11.705894,13.715158,0.365545,-1.847061,-0.259573,0.003204
0.010000,18.182632,11.705905,13.718629,0.347107,-1.843744,0.331662,0.002883
0.010000,18.185919,11.705914,13.721915,0.328648,-1.845918,-0.217327,0.002578
0.010000,18.189021,11.705921,13.725018,0.310212,-1.843640,0.227798,0.002291
0.010000,18.191938,11.705928,13.727935,0.291771,-1.844111,-0.047177,0.002020
0.010000,18.194672,11.705933,13.730668,0.273328,-1.844239,-0.012727,0.001766
0.010000,18.197221,11.705937,13.733218,0.254902,-1.842671,0.156781,0.001529
0.010000,18.199585,11.705940,13.735582,0.236466,-1.843577,-0.090604,0.001309
0.010000,18.201766,11.705943,13.737763,0.218033,-1.843250,0.032743,0.001106
0.010000,18.203762,11.705945,13.739759,0.199611,-1.842176,0.107316,0.000921
0.010000,18.205574,11.705947,13.741571,0.181191,-1.842082,0.009405,0.000752
0.010000,18.207201,11.705948,13.743198,0.162760,-1.843018,-0.093555,0.000600
0.010000,18.208645,11.705948,13.744642,0.144339,-1.842131,0.088720,0.000466
0.010000,18.209904,11.705949,13.745901,0.125922,-1.841698,0.043292,0.000348
0.010000,18.210979,11.705949,13.746976,0.107506,-1.841640,0.005816,0.000248
0.010000,18.211870,11.705949,13.747867,0.089090,-1.841590,0.004947,0.000165
0.010000,18.212577,11.705950,13.748573,0.070674,-1.841549,0.004087,0.000099
0.010000,18.213099,11.705950,13.749096,0.052259,-1.841517,0.003234,0.000050
0.010000,18.213438,11.705950,13.749434,0.033844,-1.841493,0.002387,0.000019
0.010000,18.213599,11.705950,13.749596,0.016176,-1.766848,7.464456,0.000004
0.010000,18.213638,11.705950,13.749635,0.003857,-1.231845,53.500350,6.283185
0.010000,18.213638,11.705950,13.749635,0.000000,-0.385738,84.610680,6.283185
