dt,x,y,position,velocity,acceleration,jerk,heading
0.020000,0.303823,8.655328,0.000400,0.040000,2.000000,100.000000,0.000314
0.020000,0.303793,8.655328,0.000430,0.001493,-1.925369,-196.268469,0.000281
0.020000,0.303743,8.655328,0.000480,0.002486,0.049657,98.751332,0.000227
0.020000,0.303674,8.655328,0.000549,0.003476,0.049513,-0.007236,0.000151
0.020000,0.303584,8.655328,0.000638,0.004462,0.049310,-0.010129,0.000054
0.020000,0.305897,8.655328,0.002951,0.115635,5.558656,275.467299,6.283120
0.020000,0.310969,8.655327,0.008023,0.253581,6.897299,66.932163,6.282980
0.020000,0.316821,8.655325,0.013875,0.292617,1.951785,-247.275695,6.282818
0.020000,0.323454,8.655322,0.020508,0.331656,1.951947,0.008073,6.282636
0.020000,0.330868,8.655317,0.027922,0.370709,1.952640,0.034655,6.282433
0.020000,0.339064,8.655310,0.036118,0.409774,1.953283,0.032159,6.282209
0.020000,0.348041,8.655301,0.045095,0.448845,1.953538,0.012763,6.281965
0.020000,0.357799,8.655287,0.054853,0.487934,1.954451,0.045646,6.281702
0.020000,0.368340,8.655270,0.065394,0.527038,1.955188,0.036850,6.281418
0.020000,0.379663,8.655248,0.076717,0.566157,1.955945,0.037841,6.281116
0.020000,0.391769,8.655221,0.088823,0.605292,1.956778,0.041669,6.280794
0.020000,0.404658,8.655188,0.101712,0.644446,1.957688,0.045475,6.280454
0.020000,0.418330,8.655149,0.115384,0.683620,1.958673,0.049256,6.280096
0.020000,0.432786,8.655101,0.129841,0.722813,1.959662,0.049432,6.279721
0.020000,0.448027,8.655046,0.145081,0.762023,1.960527,0.043273,6.279328
0.020000,0.464052,8.654980,0.161106,0.801263,1.961989,0.073089,6.278918
0.020000,0.480862,8.654905,0.177917,0.840524,1.963060,0.053543,6.278492
0.020000,0.498458,8.654819,0.195513,0.879808,1.964165,0.055271,6.278051
0.020000,0.516840,8.654720,0.213895,0.919121,1.965668,0.075153,6.277595
0.020000,0.536009,8.654608,0.233065,0.958460,1.966930,0.063106,6.277124
0.020000,0.555965,8.654483,0.253021,0.997824,1.968217,0.064353,6.276639
0.020000,0.576709,8.654342,0.273766,1.037222,1.969904,0.084339,6.276141
0.020000,0.598242,8.654184,0.295299,1.076649,1.971364,0.073001,6.275631
0.020000,0.620563,8.654010,0.317621,1.116107,1.972899,0.076738,6.275109
0.020000,0.643674,8.653817,0.340733,1.155598,1.974508,0.080430,6.274575
0.020000,0.667576,8.653605,0.364635,1.195121,1.976189,0.084074,6.274031
0.020000,0.692268,8.653372,0.389329,1.234680,1.977942,0.087667,6.273478
0.020000,0.717753,8.653117,0.414814,1.274275,1.979767,0.091206,6.272916
0.020000,0.744029,8.652840,0.441092,1.313909,1.981660,0.094687,6.272345
0.020000,0.771099,8.652539,0.468164,1.353581,1.983622,0.098109,6.271768
0.020000,0.798963,8.652212,0.496030,1.393289,1.985373,0.087512,6.271184
0.020000,0.827622,8.651860,0.524691,1.433039,1.987525,0.107605,6.270595
0.020000,0.857076,8.651480,0.554147,1.472832,1.989649,0.106202,6.270001
0.020000,0.887326,8.651072,0.584401,1.512665,1.991625,0.098790,6.269403
0.020000,0.918374,8.650635,0.615451,1.552542,1.993891,0.113300,6.268803
0.020000,0.950220,8.650167,0.647301,1.592467,1.996225,0.116697,6.268201
0.020000,0.982865,8.649668,0.679949,1.632432,1.998259,0.101699,6.267599
0.020000,1.016310,8.649137,0.713398,1.672447,2.000733,0.123711,6.266997
0.020000,1.050555,8.648572,0.747648,1.712510,2.003156,0.121172,6.266396
0.020000,1.085602,8.647973,0.782701,1.752621,2.005577,0.121062,6.265797
0.020000,1.121453,8.647339,0.818557,1.792783,2.008066,0.124440,6.265202
0.020000,1.158106,8.646669,0.855216,1.832995,2.010621,0.127738,6.264612
0.020000,1.195565,8.645962,0.892682,1.873260,2.013240,0.130952,6.264028
0.020000,1.233829,8.645218,0.930953,1.913578,2.015884,0.132205,6.263450
0.020000,1.272900,8.644435,0.970032,1.953946,2.018446,0.128080,6.262881
0.020000,1.312779,8.643614,1.009920,1.994375,2.021424,0.148917,6.262320
0.020000,1.353467,8.642754,1.050617,2.034859,2.024185,0.138045,6.261771
0.020000,1.394966,8.641854,1.092125,2.075397,2.026924,0.136958,6.261233
0.020000,1.437275,8.640914,1.134445,2.115997,2.030017,0.154647,6.260709
0.020000,1.480397,8.639933,1.177578,2.156655,2.032867,0.142516,6.260198
0.020000,1.524333,8.638912,1.221525,2.197373,2.035900,0.151636,6.259704
0.020000,1.569083,8.637850,1.266288,2.238154,2.039059,0.157948,6.259226
0.020000,1.614650,8.636748,1.311868,2.278997,2.042153,0.154680,6.258767
0.020000,1.661034,8.635605,1.358266,2.319903,2.045300,0.157360,6.258328
0.020000,1.708236,8.634421,1.405484,2.360874,2.048534,0.161728,6.257910
0.020000,1.756259,8.633197,1.453522,2.401911,2.051870,0.166788,6.257514
0.020000,1.805103,8.631934,1.502382,2.443015,2.055195,0.166251,6.257143
0.020000,1.854770,8.630632,1.552066,2.484187,2.058580,0.169223,6.256797
0.020000,1.905260,8.629291,1.602575,2.525428,2.062073,0.174683,6.256479
0.020000,1.956577,8.627912,1.653909,2.566740,2.065601,0.176369,6.256189
0.020000,2.008720,8.626498,1.706072,2.608123,2.069161,0.178014,6.255929
0.020000,2.061692,8.625047,1.759063,2.649578,2.072727,0.178304,6.255702
0.020000,2.115493,8.623563,1.812886,2.691108,2.076513,0.189286,6.255507
0.020000,2.170126,8.622046,1.867540,2.732711,2.080157,0.182221,6.255348
0.020000,2.225593,8.620498,1.923028,2.774392,2.084040,0.194145,6.255225
0.020000,2.281894,8.618921,1.979351,2.816149,2.087862,0.191073,6.255141
0.020000,2.339031,8.617316,2.036510,2.857985,2.091796,0.196735,6.255097
0.020000,2.397006,8.615687,2.094508,2.899901,2.095787,0.199555,6.255095
0.020000,2.455821,8.614036,2.153346,2.941898,2.099831,0.202204,6.255137
0.020000,2.515477,8.612364,2.213026,2.983977,2.103945,0.205673,6.255223
0.020000,2.575575,8.610687,2.273148,3.006091,1.105742,-49.910136,6.255357
0.020000,2.635716,8.609018,2.333311,3.008187,0.104781,-50.048037,6.255536
0.020000,2.695899,8.607360,2.393517,3.010283,0.104815,0.001681,6.255760
0.020000,2.756124,8.605716,2.453765,3.012380,0.104857,0.002108,6.256031
0.020000,2.816391,8.604089,2.514054,3.014479,0.104908,0.002534,6.256347
0.020000,2.876702,8.602480,2.574386,3.016578,0.104967,0.002957,6.256710
0.020000,2.937054,8.600894,2.634759,3.018679,0.105035,0.003378,6.257118
0.020000,2.997450,8.599333,2.695175,3.020781,0.105110,0.003795,6.257572
0.020000,3.057888,8.597799,2.755633,3.022885,0.105195,0.004208,6.258072
0.020000,3.118369,8.596297,2.816133,3.024990,0.105287,0.004616,6.258619
0.020000,3.178893,8.594827,2.876675,3.027098,0.105387,0.005020,6.259211
0.020000,3.239460,8.593394,2.937259,3.029208,0.105496,0.005419,6.259849
0.020000,3.300071,8.592000,2.997885,3.031320,0.105612,0.005812,6.260534
0.020000,3.360724,8.590648,3.058554,3.033435,0.105736,0.006199,6.261265
0.020000,3.421421,8.589340,3.119265,3.035552,0.105867,0.006579,6.262042
0.020000,3.482162,8.588081,3.180018,3.037673,0.106007,0.006951,6.262865
0.020000,3.542946,8.586871,3.240814,3.039796,0.106153,0.007316,6.263735
0.020000,3.603773,8.585716,3.301653,3.041922,0.106306,0.007673,6.264652
0.020000,3.664644,8.584617,3.362534,3.044051,0.106467,0.008021,6.265614
0.020000,3.725559,8.583577,3.423457,3.046184,0.106634,0.008360,6.266624
0.020000,3.786518,8.582599,3.484424,3.048320,0.106808,0.008689,6.267680
0.020000,3.847520,8.581687,3.545433,3.050460,0.106988,0.009007,6.268783
0.020000,3.908566,8.580842,3.606485,3.052603,0.107174,0.009314,6.269933
0.020000,3.969656,8.580069,3.667580,3.054750,0.107366,0.009610,6.271130
0.020000,4.030790,8.579370,3.728718,3.056902,0.107564,0.009894,6.272373
0.020000,4.091968,8.578747,3.789899,3.059057,0.107767,0.010165,6.273664
0.020000,4.153190,8.578205,3.851124,3.061217,0.107976,0.010422,6.275002
0.020000,4.214456,8.577746,3.912391,3.063380,0.108189,0.010665,6.276388
0.020000,4.275766,8.577373,3.973702,3.065549,0.108407,0.010894,6.277820
0.020000,4.337120,8.577089,4.035057,3.067721,0.108629,0.011107,6.279301
0.020000,4.398517,8.576897,4.096454,3.069898,0.108855,0.011304,6.280828
0.020000,4.459959,8.576800,4.157896,3.072080,0.109085,0.011485,6.282404
0.020000,4.521444,8.576802,4.219381,3.074266,0.109318,0.011648,0.000842
0.020000,4.582973,8.576905,4.280911,3.076457,0.109554,0.011793,0.002513
0.020000,4.644546,8.577112,4.342484,3.078653,0.109792,0.011919,0.004232
0.020000,4.706162,8.577427,4.404101,3.080854,0.110033,0.012025,0.006000
0.020000,4.767822,8.577853,4.465762,3.083059,0.110275,0.012111,0.007815
0.020000,4.829525,8.578393,4.527467,3.085270,0.110518,0.012176,0.009679
0.020000,4.891271,8.579049,4.589217,3.087485,0.110763,0.012219,0.011591
0.020000,4.953061,8.579826,4.651011,3.089705,0.111008,0.012239,0.013552
0.020000,5.014893,8.580726,4.712850,3.091930,0.111252,0.012236,0.015561
0.020000,5.076767,8.581752,4.774733,3.094160,0.111497,0.012208,0.017620
0.020000,5.138684,8.582908,4.836661,3.096395,0.111740,0.012155,0.019727
0.020000,5.200644,8.584197,4.898633,3.098635,0.111981,0.012076,0.021883
0.020000,5.262645,8.585622,4.960651,3.100879,0.112221,0.011970,0.024088
0.020000,5.324688,8.587187,5.022714,3.103128,0.112457,0.011837,0.026342
0.020000,5.386772,8.588894,5.084821,3.105382,0.112691,0.011675,0.028645
0.020000,5.448897,8.590747,5.146974,3.107640,0.112920,0.011483,0.030998
0.020000,5.511063,8.592749,5.209172,3.109903,0.113146,0.011261,0.033400
0.020000,5.573269,8.594903,5.271416,3.112171,0.113366,0.011008,0.035852
0.020000,5.635515,8.597214,5.333704,3.114442,0.113580,0.010723,0.038354
0.020000,5.697800,8.599683,5.396039,3.116718,0.113788,0.010405,0.040905
0.020000,5.760125,8.602315,5.458419,3.118998,0.113989,0.010052,0.043506
0.020000,5.822488,8.605112,5.520844,3.121281,0.114183,0.009665,0.046157
0.020000,5.884889,8.608079,5.583316,3.123569,0.114368,0.009242,0.048858
0.020000,5.947327,8.611218,5.645833,3.125860,0.114543,0.008783,0.051609
0.020000,6.009802,8.614532,5.708396,3.128154,0.114709,0.008286,0.054410
0.020000,6.072314,8.618026,5.771005,3.130451,0.114864,0.007751,0.057262
0.020000,6.134861,8.621702,5.833660,3.132751,0.115008,0.007176,0.060163
0.020000,6.197443,8.625564,5.896361,3.135054,0.115139,0.006562,0.063115
0.020000,6.260059,8.629616,5.959108,3.137359,0.115257,0.005906,0.066118
0.020000,6.322709,8.633860,6.021902,3.139666,0.115361,0.005209,0.069171
0.020000,6.385391,8.638300,6.084741,3.141975,0.115450,0.004469,0.072274
0.020000,6.448106,8.642940,6.147627,3.144287,0.115562,0.005591,0.075428
0.020000,6.510851,8.647782,6.210559,3.146599,0.115617,0.002737,0.078632
0.020000,6.573626,8.652831,6.273537,3.148911,0.115618,0.000052,0.081887
0.020000,6.636431,8.658090,6.336562,3.151224,0.115639,0.001033,0.085192
0.020000,6.699264,8.663562,6.399632,3.153537,0.115640,0.000067,0.088548
0.020000,6.762124,8.669250,6.462749,3.155849,0.115621,-0.000945,0.091955
0.020000,6.825010,8.675159,6.525912,3.158161,0.115581,-0.002006,0.095412
0.020000,6.887922,8.681291,6.589122,3.160471,0.115519,-0.003114,0.098920
0.020000,6.950857,8.687649,6.652377,3.162780,0.115433,-0.004270,0.102478
0.020000,7.013815,8.694238,6.715679,3.165086,0.115324,-0.005476,0.106086
0.020000,7.076794,8.701061,6.779027,3.167390,0.115189,-0.006730,0.109745
0.020000,7.139794,8.708121,6.842421,3.169691,0.115028,-0.008035,0.113454
0.020000,7.202812,8.715421,6.905861,3.171988,0.114841,-0.009389,0.117214
0.020000,7.265848,8.722965,6.969346,3.174280,0.114625,-0.010793,0.121023
0.020000,7.328899,8.730757,7.032878,3.176568,0.114380,-0.012248,0.124883
0.020000,7.391966,8.738799,7.096455,3.178850,0.114105,-0.013752,0.128792
0.020000,7.455045,8.747095,7.160077,3.181126,0.113799,-0.015307,0.132751
0.020000,7.518136,8.755648,7.223745,3.183395,0.113476,-0.016134,0.136760
0.020000,7.581236,8.764462,7.287458,3.185657,0.113085,-0.019565,0.140818
0.020000,7.644345,8.773540,7.351216,3.187910,0.112670,-0.020719,0.144925
0.020000,7.707460,8.782886,7.415019,3.190155,0.112229,-0.022063,0.149082
0.020000,7.770580,8.792502,7.478867,3.192390,0.111752,-0.023863,0.153287
0.020000,7.833702,8.802391,7.542760,3.194615,0.111238,-0.025710,0.157541
0.020000,7.896825,8.812558,7.606696,3.196828,0.110686,-0.027604,0.161843
0.020000,7.959947,8.823005,7.670677,3.199030,0.110095,-0.029544,0.166194
0.020000,8.023066,8.833735,7.734701,3.201220,0.109464,-0.031528,0.170592
0.020000,8.086179,8.844751,7.798769,3.203396,0.108793,-0.033556,0.175038
0.020000,8.149286,8.856058,7.862880,3.205557,0.108081,-0.035625,0.179531
0.020000,8.212382,8.867656,7.927034,3.207704,0.107326,-0.037736,0.184071
0.020000,8.275468,8.879551,7.991231,3.209834,0.106528,-0.039885,0.188658
0.020000,8.338539,8.891744,8.055470,3.211948,0.105687,-0.042072,0.193290
0.020000,8.401594,8.904239,8.119751,3.214044,0.104801,-0.044294,0.197969
0.020000,8.464630,8.917039,8.184073,3.216121,0.103855,-0.047282,0.202693
0.020000,8.527644,8.930146,8.248437,3.218177,0.102805,-0.052487,0.207462
0.020000,8.590636,8.943563,8.312841,3.220214,0.101854,-0.047590,0.212276
0.020000,8.653601,8.957293,8.377286,3.222230,0.100784,-0.053482,0.217133
0.020000,8.716537,8.971339,8.441770,3.224223,0.099667,-0.055841,0.222034
0.020000,8.779441,8.985704,8.506294,3.226193,0.098503,-0.058219,0.226978
0.020000,8.842312,9.000389,8.570857,3.228139,0.097290,-0.060615,0.231965
0.020000,8.905145,9.015398,8.635458,3.230060,0.096030,-0.063024,0.236994
0.020000,8.967939,9.030733,8.700097,3.231954,0.094721,-0.065444,0.242064
0.020000,9.030690,9.046397,8.764773,3.233821,0.093364,-0.067871,0.247175
0.020000,9.093395,9.062391,8.829487,3.235661,0.091958,-0.070301,0.252326
0.020000,9.156052,9.078719,8.894236,3.237471,0.090503,-0.072731,0.257517
0.020000,9.218658,9.095382,8.959021,3.239251,0.089000,-0.075157,0.262747
0.020000,9.281209,9.112383,9.023841,3.241000,0.087448,-0.077573,0.268014
0.020000,9.343702,9.129723,9.088695,3.242717,0.085849,-0.079977,0.273320
0.020000,9.406134,9.147405,9.153583,3.244401,0.084202,-0.082364,0.278662
0.020000,9.468503,9.165430,9.218504,3.246051,0.082507,-0.084729,0.284040
0.020000,9.530804,9.183801,9.283458,3.247666,0.080766,-0.087067,0.289454
0.020000,9.593035,9.202519,9.348443,3.249246,0.078978,-0.089375,0.294902
0.020000,9.655192,9.221586,9.413458,3.250789,0.077145,-0.091646,0.300384
0.020000,9.717272,9.241003,9.478504,3.252294,0.075268,-0.093876,0.305898
0.020000,9.779272,9.260772,9.543579,3.253761,0.073347,-0.096061,0.311445
0.020000,9.841188,9.280895,9.608683,3.255188,0.071383,-0.098194,0.317023
0.020000,9.903016,9.301372,9.673815,3.256576,0.069377,-0.100270,0.322631
0.020000,9.964754,9.322206,9.738973,3.257923,0.067332,-0.102286,0.328269
0.020000,10.026399,9.343396,9.804158,3.259228,0.065247,-0.104234,0.333936
0.020000,10.087945,9.364945,9.869368,3.260490,0.063125,-0.106110,0.339629
0.020000,10.149391,9.386852,9.934602,3.261709,0.060966,-0.107909,0.345350
0.020000,10.210732,9.409120,9.999859,3.262885,0.058774,-0.109626,0.351096
0.020000,10.271965,9.431748,10.065140,3.264016,0.056549,-0.111254,0.356867
0.020000,10.333086,9.454738,10.130442,3.265102,0.054293,-0.112790,0.362662
0.020000,10.394092,9.478090,10.195765,3.266142,0.052009,-0.114227,0.368479
0.020000,10.454980,9.501804,10.261107,3.267136,0.049697,-0.115560,0.374319
0.020000,10.515746,9.525881,10.326469,3.268083,0.047362,-0.116785,0.380178
0.020000,10.576386,9.550320,10.391849,3.268983,0.045004,-0.117897,0.386058
0.020000,10.636896,9.575123,10.457245,3.269836,0.042626,-0.118891,0.391956
0.020000,10.697274,9.600289,10.522658,3.270640,0.040231,-0.119762,0.397872
0.020000,10.757516,9.625819,10.588086,3.271397,0.037821,-0.120505,0.403804
0.020000,10.817618,9.651711,10.653528,3.272094,0.034847,-0.148680,0.409751
0.020000,10.877576,9.677965,10.718983,3.272740,0.032302,-0.127231,0.415713
0.020000,10.937388,9.704583,10.784450,3.273347,0.030365,-0.096882,0.421688
0.020000,10.997050,9.731562,10.849928,3.273905,0.027911,-0.122702,0.427675
0.020000,11.056558,9.758902,10.915416,3.274414,0.025455,-0.122768,0.433674
0.020000,11.115909,9.786603,10.980914,3.274874,0.023002,-0.122684,0.439682
0.020000,11.175101,9.814663,11.046419,3.275285,0.020553,-0.122447,0.445699
0.020000,11.234128,9.843083,11.111932,3.275648,0.018112,-0.122053,0.451724
0.020000,11.292988,9.871861,11.177451,3.275922,0.013721,-0.219542,0.457755
0.020000,11.351678,9.900995,11.242974,3.276177,0.012731,-0.049461,0.463792
0.020000,11.410195,9.930486,11.308502,3.276389,0.010605,-0.106332,0.469834
0.020000,11.468536,9.960330,11.374033,3.276553,0.008213,-0.119610,0.475879
0.020000,11.526697,9.990529,11.439566,3.276670,0.005844,-0.118421,0.481926
0.020000,11.584674,10.021078,11.505101,3.276702,0.001610,-0.211693,0.487974
0.020000,11.642466,10.051978,11.570634,3.276692,-0.000485,-0.104769,0.494023
0.020000,11.700070,10.083226,11.636168,3.276664,-0.001421,-0.046819,0.500070
0.020000,11.757482,10.114822,11.701699,3.276590,-0.003678,-0.112819,0.506116
0.020000,11.814699,10.146762,11.767228,3.276443,-0.007376,-0.184934,0.512158
0.020000,11.871719,10.179045,11.832753,3.276219,-0.011196,-0.190953,0.518196
0.020000,11.928539,10.211670,11.898273,3.276007,-0.010593,0.030113,0.524230
0.020000,11.985157,10.244634,11.963788,3.275753,-0.012686,-0.104654,0.530256
0.020000,12.041569,10.277935,12.029295,3.275376,-0.018853,-0.308350,0.536276
0.020000,12.097773,10.311570,12.094796,3.275006,-0.018490,0.018187,0.542288
0.020000,12.153768,10.345539,12.160288,3.274624,-0.019104,-0.030717,0.548290
0.020000,12.209549,10.379838,12.225771,3.274127,-0.024854,-0.287489,0.554282
0.020000,12.265115,10.414464,12.291243,3.273610,-0.025878,-0.051207,0.560263
0.020000,12.320465,10.449417,12.356705,3.273108,-0.025067,0.040554,0.566232
0.020000,12.375595,10.484692,12.422154,3.272458,-0.032514,-0.372355,0.572188
0.020000,12.430503,10.520287,12.487591,3.271843,-0.030774,0.086978,0.578130
0.020000,12.485189,10.556201,12.553015,3.271206,-0.031835,-0.053043,0.584058
0.020000,12.530967,10.586603,12.607969,2.747719,-26.174345,-1307.125483,0.586006
0.020000,12.574135,10.614975,12.659625,2.582798,-8.246067,896.413894,0.576887
0.020000,12.617545,10.642942,12.711265,2.581988,-0.040498,410.278427,0.567750
0.020000,12.661199,10.670504,12.762892,2.581337,-0.032533,0.398250,0.558600
0.020000,12.705095,10.697660,12.814509,2.580848,-0.024459,0.403698,0.549438
0.020000,12.749232,10.724410,12.866119,2.580522,-0.016287,0.408632,0.540269
0.020000,12.793610,10.750752,12.917727,2.580362,-0.008027,0.413003,0.531097
0.020000,12.838228,10.776685,12.969334,2.580368,0.000309,0.416769,0.521925
0.020000,12.883085,10.802210,13.020945,2.580542,0.008706,0.419889,0.512757
0.020000,12.928180,10.827327,13.072562,2.580885,0.017153,0.422326,0.503596
0.020000,12.973512,10.852034,13.124190,2.581398,0.025634,0.424050,0.494446
0.020000,13.019080,10.876332,13.175832,2.582080,0.034135,0.425035,0.485312
0.020000,13.064883,10.900222,13.227491,2.582933,0.042640,0.425258,0.476196
0.020000,13.110920,10.923702,13.279170,2.583956,0.051134,0.424704,0.467102
0.020000,13.157190,10.946775,13.330873,2.585148,0.059601,0.423361,0.458035
0.020000,13.203691,10.969439,13.382603,2.586512,0.068190,0.429462,0.448997
0.020000,13.250422,10.991696,13.434364,2.588050,0.076895,0.435226,0.439993
0.020000,13.297382,11.013547,13.486159,2.589743,0.084684,0.389475,0.431025
0.020000,13.344570,11.034992,13.537991,2.591601,0.092876,0.409606,0.422099
0.020000,13.391984,11.056032,13.589863,2.593620,0.100964,0.404390,0.413217
0.020000,13.439622,11.076669,13.641780,2.595813,0.109637,0.433660,0.404382
0.020000,13.487483,11.096904,13.693743,2.598149,0.116786,0.357442,0.395599
0.020000,13.535566,11.116737,13.745755,2.600637,0.124415,0.381424,0.386870
0.020000,13.583869,11.136172,13.797821,2.603284,0.132381,0.398334,0.378198
0.020000,13.632389,11.155208,13.849942,2.606075,0.139551,0.358466,0.369588
0.020000,13.681126,11.173849,13.902123,2.609003,0.146394,0.342177,0.361042
0.020000,13.730078,11.192096,13.954364,2.612080,0.153849,0.372730,0.352563
0.020000,13.779242,11.209950,14.006670,2.615286,0.160281,0.321584,0.344154
0.020000,13.828616,11.227415,14.059042,2.618619,0.166653,0.318603,0.335818
0.020000,13.878200,11.244491,14.111484,2.622089,0.173504,0.342551,0.327558
0.020000,13.927990,11.261183,14.163997,2.625668,0.178966,0.273120,0.319376
0.020000,13.977985,11.277491,14.216585,2.629372,0.185166,0.310002,0.311275
0.020000,14.028182,11.293419,14.269248,2.633184,0.190615,0.272450,0.303257
0.020000,14.078580,11.308969,14.321991,2.637102,0.195902,0.264366,0.295325
0.020000,14.129175,11.324145,14.374813,2.641126,0.201212,0.265496,0.287481
0.020000,14.179967,11.338948,14.427718,2.645241,0.205744,0.226558,0.279727
0.020000,14.230952,11.353382,14.480707,2.649456,0.210733,0.249469,0.272065
0.020000,14.282129,11.367450,14.533782,2.653750,0.214710,0.198840,0.264497
0.020000,14.333494,11.381156,14.586945,2.658132,0.219092,0.219106,0.257025
0.020000,14.385046,11.394502,14.640196,2.662587,0.222752,0.183017,0.249650
0.020000,14.436783,11.407493,14.693539,2.667117,0.226498,0.187274,0.242374
0.020000,14.488701,11.420131,14.746973,2.671713,0.229792,0.164694,0.235198
0.020000,14.540799,11.432420,14.800500,2.676372,0.232974,0.159117,0.228124
0.020000,14.593073,11.444364,14.854122,2.681089,0.235862,0.144382,0.221154
0.020000,14.645522,11.455966,14.907839,2.685860,0.238545,0.134161,0.214287
0.020000,14.698144,11.467232,14.961653,2.690680,0.241008,0.123151,0.207526
0.020000,14.750935,11.478163,15.015564,2.695545,0.243246,0.111923,0.200872
0.020000,14.803893,11.488766,15.069573,2.700451,0.245280,0.101709,0.194324
0.020000,14.857016,11.499043,15.123681,2.705394,0.247124,0.092168,0.187885
0.020000,14.910301,11.508998,15.177888,2.710368,0.248733,0.080472,0.181554
0.020000,14.963746,11.518637,15.232196,2.715373,0.250230,0.074840,0.175333
0.020000,15.017349,11.527964,15.286604,2.720401,0.251423,0.059635,0.169222
0.020000,15.071107,11.536982,15.341113,2.725454,0.252623,0.060007,0.163221
0.020000,15.125017,11.545697,15.395723,2.730522,0.253407,0.039228,0.157331
0.020000,15.179079,11.554113,15.450435,2.735609,0.254347,0.046986,0.151552
0.020000,15.233288,11.562234,15.505249,2.740704,0.254780,0.021630,0.145884
0.020000,15.287643,11.570065,15.560166,2.745813,0.255439,0.032973,0.140328
0.020000,15.342141,11.577612,15.615184,2.750926,0.255620,0.009040,0.134884
0.020000,15.396781,11.584878,15.670305,2.756045,0.255961,0.017031,0.129552
0.020000,15.451560,11.591869,15.725528,2.761164,0.255971,0.000506,0.124331
0.020000,15.506476,11.598589,15.780854,2.766284,0.255981,0.000516,0.119223
0.020000,15.561527,11.605043,15.836282,2.771402,0.255893,-0.004397,0.114226
0.020000,15.616711,11.611237,15.891812,2.776513,0.255559,-0.016705,0.109341
0.020000,15.672025,11.617176,15.947445,2.781622,0.255446,-0.005655,0.104568
0.020000,15.727469,11.622863,16.003179,2.786717,0.254751,-0.034722,0.099906
0.020000,15.783039,11.628305,16.059015,2.791808,0.254583,-0.008404,0.095356
0.020000,15.838734,11.633507,16.114953,2.796885,0.253816,-0.038359,0.090916
0.020000,15.894553,11.638474,16.170992,2.801951,0.253326,-0.024531,0.086587
0.020000,15.950493,11.643210,16.227132,2.807005,0.252667,-0.032906,0.082369
0.020000,16.006552,11.647722,16.283373,2.812041,0.251802,-0.043277,0.078260
0.020000,16.062543,11.652000,16.339527,2.807683,-0.217887,-23.484455,0.074275
0.020000,16.118086,11.656025,16.395215,2.784425,-1.162883,-47.249775,0.070437
0.020000,16.172987,11.659796,16.450246,2.751558,-1.643360,-24.023864,0.066754
0.020000,16.227242,11.663327,16.504616,2.718482,-1.653820,-0.522982,0.063223
0.020000,16.280845,11.666629,16.558320,2.685199,-1.664150,-0.516516,0.059839
0.020000,16.333789,11.669714,16.611354,2.651713,-1.674296,-0.507326,0.056597
0.020000,16.386070,11.672594,16.663715,2.618025,-1.684412,-0.505798,0.053493
0.020000,16.437683,11.675281,16.715398,2.584146,-1.693906,-0.474660,0.050522
0.020000,16.488623,11.677784,16.766399,2.550071,-1.703790,-0.494205,0.047682
0.020000,16.538886,11.680113,16.816715,2.515811,-1.712963,-0.458643,0.044967
0.020000,16.588466,11.682279,16.866342,2.481366,-1.722247,-0.464243,0.042373
0.020000,16.637359,11.684291,16.915277,2.446740,-1.731302,-0.452742,0.039896
0.020000,16.685562,11.686158,16.963516,2.411938,-1.740130,-0.441379,0.037534
0.020000,16.733069,11.687888,17.011055,2.376963,-1.748734,-0.430213,0.035281
0.020000,16.779878,11.689490,17.057892,2.341820,-1.757157,-0.421162,0.033134
0.020000,16.825985,11.690971,17.104022,2.306507,-1.765637,-0.424000,0.031090
0.020000,16.871385,11.692338,17.149443,2.271037,-1.773501,-0.393174,0.029145
0.020000,16.916075,11.693599,17.194151,2.235408,-1.781479,-0.398929,0.027295
0.020000,16.960052,11.694761,17.238143,2.199621,-1.789328,-0.392449,0.025537
0.020000,17.003313,11.695830,17.281417,2.163685,-1.796789,-0.373036,0.023868
0.020000,17.045854,11.696811,17.323969,2.127600,-1.804244,-0.372748,0.022285
0.020000,17.087671,11.697712,17.365796,2.091371,-1.811451,-0.360365,0.020784
0.020000,17.128763,11.698537,17.406896,2.055003,-1.818414,-0.348120,0.019363
0.020000,17.169126,11.699291,17.447266,2.018494,-1.825435,-0.351078,0.018018
0.020000,17.208757,11.699980,17.486903,1.981854,-1.832019,-0.329189,0.016746
0.020000,17.247654,11.700608,17.525805,1.945079,-1.838765,-0.337289,0.015545
0.020000,17.285813,11.701179,17.563968,1.908177,-1.845062,-0.314834,0.014412
0.020000,17.323232,11.701698,17.601391,1.871151,-1.851317,-0.312775,0.013343
0.020000,17.359909,11.702169,17.638072,1.834003,-1.857412,-0.304740,0.012337
0.020000,17.395841,11.702595,17.674006,1.796734,-1.863455,-0.302158,0.011391
0.020000,17.431026,11.702980,17.709193,1.759351,-1.869163,-0.285407,0.010501
0.020000,17.465462,11.703328,17.743630,1.721854,-1.874821,-0.282881,0.009667
0.020000,17.499145,11.703640,17.777315,1.684247,-1.880357,-0.276830,0.008885
0.020000,17.532075,11.703920,17.810246,1.646532,-1.885758,-0.270048,0.008152
0.020000,17.564248,11.704172,17.842420,1.608713,-1.890928,-0.258469,0.007468
0.020000,17.595663,11.704396,17.873836,1.570793,-1.896029,-0.255076,0.006829
0.020000,17.626318,11.704596,17.904491,1.532773,-1.900973,-0.247199,0.006233
0.020000,17.656210,11.704774,17.934385,1.494657,-1.905795,-0.241097,0.005678
0.020000,17.685339,11.704932,17.963514,1.456447,-1.910523,-0.236408,0.005162
0.020000,17.713702,11.705072,17.991877,1.418148,-1.914953,-0.221468,0.004684
0.020000,17.741296,11.705195,18.019472,1.379758,-1.919498,-0.227267,0.004241
0.020000,17.768122,11.705303,18.046297,1.341284,-1.923691,-0.209670,0.003831
0.020000,17.794176,11.705398,18.072352,1.302727,-1.927858,-0.208310,0.003453
0.020000,17.819458,11.705481,18.097634,1.264089,-1.931890,-0.201622,0.003104
0.020000,17.843965,11.705553,18.122141,1.225373,-1.935780,-0.194518,0.002784
0.020000,17.867697,11.705615,18.145873,1.186583,-1.939533,-0.187619,0.002490
0.020000,17.890651,11.705669,18.168827,1.147718,-1.943221,-0.184390,0.002221
0.020000,17.912827,11.705716,18.191003,1.108785,-1.946684,-0.173182,0.001975
0.020000,17.934222,11.705756,18.212398,1.069782,-1.950114,-0.171474,0.001751
0.020000,17.954837,11.705790,18.233013,1.030716,-1.953343,-0.161446,0.001547
0.020000,17.974668,11.705818,18.252845,0.991585,-1.956502,-0.157993,0.001362
0.020000,17.993716,11.705843,18.271892,0.952395,-1.959527,-0.151227,0.001195
0.020000,18.011979,11.705863,18.290155,0.913147,-1.962419,-0.144614,0.001045
0.020000,18.029456,11.705880,18.307632,0.873843,-1.965182,-0.138146,0.000910
0.020000,18.046146,11.705894,18.324322,0.834486,-1.967822,-0.132014,0.000788
0.020000,18.062047,11.705906,18.340224,0.795079,-1.970399,-0.128825,0.000680
0.020000,18.077160,11.705916,18.355336,0.755623,-1.972752,-0.117648,0.000584
0.020000,18.091482,11.705923,18.369658,0.716122,-1.975058,-0.115295,0.000498
0.020000,18.105014,11.705930,18.383190,0.676578,-1.977238,-0.109005,0.000423
0.020000,18.117754,11.705935,18.395930,0.636992,-1.979262,-0.101198,0.000356
0.020000,18.129701,11.705938,18.407877,0.597369,-1.981188,-0.096307,0.000298
0.020000,18.140855,11.705942,18.419031,0.557708,-1.983005,-0.090870,0.000247
0.020000,18.151215,11.705944,18.429392,0.518015,-1.984666,-0.083021,0.000203
0.020000,18.160781,11.705946,18.438957,0.478290,-1.986234,-0.078391,0.000165
0.020000,18.169552,11.705947,18.447728,0.438537,-1.987678,-0.072224,0.000132
0.020000,18.177527,11.705948,18.455703,0.398757,-1.989003,-0.066226,0.000104
0.020000,18.184706,11.705949,18.462882,0.358953,-1.990194,-0.059591,0.000081
0.020000,18.191089,11.705949,18.469265,0.319127,-1.991278,-0.054182,0.000061
0.020000,18.196674,11.705949,18.474851,0.279283,-1.992238,-0.048004,0.000045
0.020000,18.201463,11.705949,18.479639,0.239421,-1.993076,-0.041870,0.000031
0.020000,18.205454,11.705950,18.483630,0.199545,-1.993806,-0.036518,0.000021
0.020000,18.208647,11.705950,18.486823,0.159657,-1.994395,-0.029476,0.000012
0.020000,18.211042,11.705950,18.489218,0.119759,-1.994882,-0.024314,0.000006
0.020000,18.212639,11.705950,18.490815,0.079855,-1.995235,-0.017642,0.000002
0.020000,18.213438,11.705950,18.491614,0.039945,-1.995480,-0.012249,0.000000
0.020000,18.213638,11.705950,18.491814,0.009995,-1.497523,24.897810,0.000000
0.020000,18.213638,11.705950,18.491814,0.000000,-0.499735,49.889412,0.000000
