dt,x,y,position,velocity,acceleration,jerk,heading
0.010000,0.303535,9.570328,0.000050,0.009991,0.999058,99.905768,0.000324
0.010000,0.303535,9.570328,0.000250,0.029972,1.998115,99.905768,0.000318
0.010000,0.303535,9.570328,0.000649,0.049953,1.998115,-0.000000,0.000307
0.010000,0.303535,9.570328,0.001249,0.069934,1.998115,0.000000,0.000291
0.010000,0.303535,9.570328,0.002048,0.089915,1.998115,-0.000000,0.000269
0.010000,0.303535,9.570328,0.003047,0.109896,1.998115,0.000000,0.000242
0.010000,0.303535,9.570328,0.004246,0.129877,1.998115,-0.000000,0.000210
0.010000,0.303535,9.570328,0.005645,0.149859,1.998115,-0.000000,0.000172
0.010000,0.303535,9.570328,0.007243,0.169840,1.998115,0.000000,0.000128
0.010000,0.303535,9.570328,0.009041,0.189821,1.998115,-0.000000,0.000079
0.010000,0.303535,9.570328,0.011040,0.209802,1.998115,0.000000,0.000025
0.010000,0.304794,9.570328,0.013238,0.229783,1.998115,-0.000000,6.283151
0.010000,0.307192,9.570328,0.015635,0.249764,1.998115,0.000000,6.283087
0.010000,0.309790,9.570327,0.018233,0.269746,1.998115,-0.000000,6.283016
0.010000,0.312587,9.570327,0.021030,0.289727,1.998115,0.000000,6.282941
0.010000,0.315584,9.570326,0.024027,0.309708,1.998115,0.000000,6.282860
0.010000,0.318781,9.570325,0.027224,0.329689,1.998115,0.000000,6.282775
0.010000,0.322178,9.570323,0.030621,0.349670,1.998115,-0.000000,6.282683
0.010000,0.325775,9.570321,0.034218,0.369651,1.998115,0.000000,6.282587
0.010000,0.329571,9.570319,0.038014,0.389632,1.998115,0.000000,6.282486
0.010000,0.333567,9.570316,0.042010,0.409614,1.998115,-0.000000,6.282379
0.010000,0.337763,9.570312,0.046206,0.429595,1.998115,0.000000,6.282267
0.010000,0.342159,9.570308,0.050602,0.449576,1.998115,0.000000,6.282151
0.010000,0.346755,9.570303,0.055198,0.469557,1.998115,0.000000,6.282029
0.010000,0.351550,9.570297,0.059993,0.489538,1.998115,-0.000000,6.281902
0.010000,0.356546,9.570290,0.064989,0.509519,1.998115,0.000000,6.281770
0.010000,0.361741,9.570282,0.070184,0.529501,1.998115,-0.000000,6.281634
0.010000,0.367136,9.570274,0.075579,0.549482,1.998115,0.000000,6.281492
0.010000,0.372730,9.570264,0.081173,0.569463,1.998115,-0.000000,6.281346
0.010000,0.378525,9.570253,0.086968,0.589444,1.998115,0.000000,6.281195
0.010000,0.384519,9.570240,0.092962,0.609425,1.998115,0.000000,6.281039
0.010000,0.390713,9.570226,0.099156,0.629406,1.998115,-0.000000,6.280878
0.010000,0.397107,9.570211,0.105550,0.649387,1.998115,0.000000,6.280713
0.010000,0.403701,9.570194,0.112144,0.669369,1.998115,0.000000,6.280543
0.010000,0.410495,9.570176,0.118938,0.689350,1.998115,0.000000,6.280369
0.010000,0.417488,9.570155,0.125931,0.709331,1.998115,-0.000000,6.280190
0.010000,0.424681,9.570133,0.133124,0.729312,1.998115,0.000000,6.280007
0.010000,0.432074,9.570109,0.140517,0.749293,1.998115,0.000000,6.279819
0.010000,0.439667,9.570083,0.148110,0.769274,1.998115,0.000000,6.279627
0.010000,0.447460,9.570054,0.155903,0.789256,1.998115,0.000000,6.279431
0.010000,0.455452,9.570023,0.163895,0.809237,1.998115,0.000000,6.279230
0.010000,0.463644,9.569990,0.172088,0.829218,1.998115,-0.000000,6.279025
0.010000,0.472036,9.569954,0.180480,0.849199,1.998115,0.000000,6.278817
0.010000,0.480628,9.569916,0.189072,0.869180,1.998115,-0.000000,6.278604
0.010000,0.489420,9.569875,0.197863,0.889161,1.998115,0.000000,6.278387
0.010000,0.498411,9.569831,0.206855,0.909142,1.998115,-0.000000,6.278167
0.010000,0.507602,9.569783,0.216046,0.929124,1.998115,-0.000000,6.277943
0.010000,0.516993,9.569733,0.225437,0.949105,1.998115,0.000000,6.277715
0.010000,0.526584,9.569680,0.235028,0.969086,1.998115,0.000000,6.277483
0.010000,0.536375,9.569623,0.244819,0.989067,1.998115,-0.000000,6.277248
0.010000,0.546365,9.569562,0.254810,1.009048,1.998115,0.000000,6.277009
0.010000,0.556555,9.569498,0.265000,1.029029,1.998115,0.000000,6.276767
0.010000,0.566945,9.569430,0.275390,1.049011,1.998115,-0.000000,6.276521
0.010000,0.577535,9.569358,0.285980,1.068992,1.998115,0.000000,6.276273
0.010000,0.588325,9.569282,0.296770,1.088973,1.998115,0.000000,6.276021
0.010000,0.599314,9.569202,0.307760,1.108954,1.998115,0.000000,6.275766
0.010000,0.610503,9.569118,0.318949,1.128935,1.998115,0.000000,6.275508
0.010000,0.621892,9.569029,0.330338,1.148916,1.998115,-0.000000,6.275247
0.010000,0.633481,9.568935,0.341927,1.168897,1.998115,0.000000,6.274983
0.010000,0.645269,9.568837,0.353716,1.188879,1.998115,-0.000000,6.274716
0.010000,0.657257,9.568734,0.365705,1.208860,1.998115,0.000000,6.274447
0.010000,0.669445,9.568625,0.377894,1.228841,1.998115,0.000000,6.274176
0.010000,0.681833,9.568512,0.390282,1.248822,1.998115,-0.000000,6.273901
0.010000,0.694421,9.568394,0.402870,1.268803,1.998115,0.000000,6.273625
0.010000,0.707208,9.568270,0.415658,1.288784,1.998115,-0.000000,6.273346
0.010000,0.720195,9.568140,0.428646,1.308766,1.998115,0.000000,6.273065
0.010000,0.733382,9.568005,0.441833,1.328747,1.998115,0.000000,6.272782
0.010000,0.746769,9.567863,0.455221,1.348728,1.998115,0.000000,6.272497
0.010000,0.760355,9.567716,0.468808,1.368709,1.998115,0.000000,6.272210
0.010000,0.774141,9.567563,0.482595,1.388690,1.998115,0.000000,6.271922
0.010000,0.788127,9.567403,0.496582,1.408671,1.998115,0.000000,6.271632
0.010000,0.802313,9.567237,0.510768,1.428652,1.998115,-0.000000,6.271340
0.010000,0.816698,9.567065,0.525155,1.448634,1.998115,0.000000,6.271047
0.010000,0.831283,9.566886,0.539741,1.468615,1.998115,0.000000,6.270752
0.010000,0.846068,9.566700,0.554527,1.488596,1.998115,0.000000,6.270457
0.010000,0.861053,9.566507,0.569513,1.508577,1.998115,0.000000,6.270160
0.010000,0.876237,9.566307,0.584699,1.528558,1.998115,-0.000000,6.269862
0.010000,0.891621,9.566099,0.600084,1.548539,1.998115,0.000000,6.269564
0.010000,0.907205,9.565885,0.615669,1.568521,1.998115,0.000000,6.269264
0.010000,0.922989,9.565663,0.631454,1.588502,1.998115,-0.000000,6.268964
0.010000,0.938972,9.565433,0.647439,1.608483,1.998115,-0.000000,6.268664
0.010000,0.955155,9.565195,0.663624,1.628464,1.998115,0.000000,6.268363
0.010000,0.971538,9.564950,0.680009,1.648445,1.998115,-0.000000,6.268062
0.010000,0.988120,9.564697,0.696593,1.668426,1.998115,-0.000000,6.267761
0.010000,1.004902,9.564435,0.713377,1.688407,1.998115,0.000000,6.267460
0.010000,1.021884,9.564166,0.730361,1.708389,1.998115,-0.000000,6.267159
0.010000,1.039065,9.563888,0.747545,1.728370,1.998115,0.000000,6.266858
0.010000,1.056447,9.563601,0.764929,1.748351,1.998115,0.000000,6.266558
0.010000,1.074028,9.563306,0.782512,1.768332,1.998115,-0.000000,6.266258
0.010000,1.091808,9.563003,0.800295,1.788313,1.998115,0.000000,6.265959
0.010000,1.109789,9.562690,0.818278,1.808294,1.998115,0.000000,6.265660
0.010000,1.127969,9.562369,0.836461,1.828276,1.998115,-0.000000,6.265363
0.010000,1.146348,9.562039,0.854844,1.848257,1.998115,0.000000,6.265067
0.010000,1.164928,9.561699,0.873426,1.868238,1.998115,0.000000,6.264772
0.010000,1.183707,9.561351,0.892208,1.888219,1.998115,-0.000000,6.264478
0.010000,1.202686,9.560993,0.911191,1.908200,1.998115,-0.000000,6.264186
0.010000,1.221864,9.560625,0.930372,1.928181,1.998115,0.000000,6.263895
0.010000,1.241242,9.560249,0.949754,1.948162,1.998115,0.000000,6.263607
0.010000,1.260820,9.559863,0.969336,1.968144,1.998115,-0.000000,6.263320
0.010000,1.280597,9.559467,0.989117,1.988125,1.998115,-0.000000,6.263035
0.010000,1.300574,9.559061,1.009098,2.008106,1.998115,0.000000,6.262753
0.010000,1.320751,9.558646,1.029279,2.028087,1.998115,-0.000000,6.262473
0.010000,1.341127,9.558221,1.049660,2.048068,1.998115,0.000000,6.262195
0.010000,1.361703,9.557787,1.070241,2.068049,1.998115,0.000000,6.261920
0.010000,1.382479,9.557342,1.091021,2.088031,1.998115,-0.000000,6.261648
0.010000,1.403454,9.556887,1.112001,2.108012,1.998115,0.000000,6.261379
0.010000,1.424629,9.556423,1.133181,2.127993,1.998115,0.000000,6.261114
0.010000,1.446004,9.555948,1.154561,2.147974,1.998115,0.000000,6.260851
0.010000,1.467578,9.555463,1.176141,2.167955,1.998115,-0.000000,6.260592
0.010000,1.489352,9.554968,1.197920,2.187936,1.998115,0.000000,6.260337
0.010000,1.511325,9.554463,1.219899,2.207917,1.998115,-0.000000,6.260086
0.010000,1.533498,9.553948,1.242078,2.227899,1.998115,0.000000,6.259838
0.010000,1.555871,9.553423,1.264457,2.247880,1.998115,0.000000,6.259595
0.010000,1.578443,9.552888,1.287036,2.267861,1.998115,-0.000000,6.259356
0.010000,1.601215,9.552343,1.309815,2.287842,1.998115,0.000000,6.259122
0.010000,1.624187,9.551787,1.332793,2.307823,1.998115,0.000000,6.258892
0.010000,1.647358,9.551221,1.355971,2.327804,1.998115,0.000000,6.258667
0.010000,1.670729,9.550646,1.379349,2.347786,1.998115,0.000000,6.258447
0.010000,1.694299,9.550060,1.402927,2.367767,1.998115,-0.000000,6.258233
0.010000,1.718070,9.549464,1.426704,2.387748,1.998115,0.000000,6.258024
0.010000,1.742039,9.548858,1.450682,2.407729,1.998115,-0.000000,6.257820
0.010000,1.766209,9.548243,1.474859,2.427710,1.998115,0.000000,6.257622
0.010000,1.790578,9.547617,1.499236,2.447691,1.998115,0.000000,6.257430
0.010000,1.815146,9.546982,1.523813,2.467672,1.998115,-0.000000,6.257244
0.010000,1.839914,9.546337,1.548589,2.487654,1.998115,0.000000,6.257064
0.010000,1.864882,9.545683,1.573566,2.507635,1.998115,0.000000,6.256891
0.010000,1.890050,9.545019,1.598742,2.527616,1.998115,0.000000,6.256725
0.010000,1.915417,9.544345,1.624118,2.547597,1.998115,-0.000000,6.256565
0.010000,1.940984,9.543663,1.649694,2.567578,1.998115,0.000000,6.256413
0.010000,1.966750,9.542971,1.675470,2.587559,1.998115,-0.000000,6.256267
0.010000,1.992716,9.542270,1.701445,2.607541,1.998115,0.000000,6.256129
0.010000,2.018882,9.541560,1.727620,2.627522,1.998115,0.000000,6.255999
0.010000,2.045247,9.540841,1.753996,2.647503,1.998115,-0.000000,6.255877
0.010000,2.071812,9.540114,1.780571,2.667484,1.998115,0.000000,6.255762
0.010000,2.098577,9.539379,1.807345,2.687465,1.998115,0.000000,6.255656
0.010000,2.125541,9.538635,1.834320,2.707446,1.998115,0.000000,6.255559
0.010000,2.152705,9.537883,1.861494,2.727427,1.998115,0.000000,6.255469
0.010000,2.180069,9.537123,1.888868,2.747409,1.998115,-0.000000,6.255389
0.010000,2.207632,9.536356,1.916442,2.767390,1.998115,0.000000,6.255318
0.010000,2.235395,9.535581,1.944216,2.787371,1.998115,-0.000000,6.255256
0.010000,2.263358,9.534799,1.972190,2.807352,1.998115,0.000000,6.255204
0.010000,2.291520,9.534010,2.000363,2.827333,1.998115,0.000000,6.255161
0.010000,2.319882,9.533215,2.028736,2.847314,1.998115,-0.000000,6.255128
0.010000,2.348444,9.532413,2.057310,2.867296,1.998115,0.000000,6.255106
0.010000,2.377205,9.531605,2.086082,2.887277,1.998115,0.000000,6.255093
0.010000,2.406167,9.530791,2.115055,2.907258,1.998115,0.000000,6.255091
0.010000,2.435328,9.529972,2.144228,2.927239,1.998115,-0.000000,6.255100
0.010000,2.464688,9.529147,2.173600,2.947220,1.998115,0.000000,6.255120
0.010000,2.494249,9.528318,2.203172,2.967201,1.998115,-0.000000,6.255151
0.010000,2.524009,9.527484,2.232944,2.987182,1.998115,0.000000,6.255194
0.010000,2.553969,9.526646,2.262916,3.007164,1.998115,0.000000,6.255248
0.010000,2.584129,9.525804,2.293087,3.027145,1.998115,-0.000000,6.255314
0.010000,2.614489,9.524959,2.323458,3.047126,1.998115,0.000000,6.255393
0.010000,2.645048,9.524110,2.354030,3.067107,1.998115,-0.000000,6.255483
0.010000,2.675807,9.523260,2.384801,3.087088,1.998115,0.000000,6.255587
0.010000,2.706766,9.522407,2.415771,3.107069,1.998115,0.000000,6.255703
0.010000,2.737925,9.521552,2.446942,3.127051,1.998115,-0.000000,6.255832
0.010000,2.769284,9.520697,2.478312,3.147032,1.998115,0.000000,6.255975
0.010000,2.800842,9.519840,2.509883,3.167013,1.998115,0.000000,6.256131
0.010000,2.832601,9.518983,2.541653,3.186994,1.998115,-0.000000,6.256301
0.010000,2.864559,9.518127,2.573623,3.206975,1.998115,0.000000,6.256485
0.010000,2.896718,9.517271,2.605792,3.226956,1.998115,-0.000000,6.256683
0.010000,2.929076,9.516417,2.638162,3.246937,1.998115,0.000000,6.256896
0.010000,2.961634,9.515564,2.670731,3.266919,1.998115,0.000000,6.257123
0.010000,2.994392,9.514714,2.703500,3.286900,1.998115,-0.000000,6.257366
0.010000,3.027350,9.513867,2.736469,3.306881,1.998115,0.000000,6.257624
0.010000,3.060508,9.513024,2.769638,3.326862,1.998115,-0.000000,6.257898
0.010000,3.093866,9.512185,2.803006,3.346843,1.998115,0.000000,6.258187
0.010000,3.127424,9.511351,2.836575,3.366824,1.998115,0.000000,6.258492
0.010000,3.161182,9.510523,2.870343,3.386806,1.998115,-0.000000,6.258814
0.010000,3.195140,9.509701,2.904311,3.406787,1.998115,0.000000,6.259153
0.010000,3.229298,9.508886,2.938478,3.426768,1.998115,0.000000,6.259508
0.010000,3.263656,9.508078,2.972846,3.446749,1.998115,-0.000000,6.259881
0.010000,3.298214,9.507280,3.007413,3.466730,1.998115,0.000000,6.260271
0.010000,3.332972,9.506490,3.042181,3.486711,1.998115,0.000000,6.260679
0.010000,3.367931,9.505710,3.077148,3.506692,1.998115,-0.000000,6.261104
0.010000,3.403089,9.504942,3.112314,3.526674,1.998115,0.000000,6.261548
0.010000,3.438448,9.504185,3.147681,3.546655,1.998115,0.000000,6.262011
0.010000,3.474006,9.503440,3.183248,3.566636,1.998115,-0.000000,6.262492
0.010000,3.509765,9.502709,3.219014,3.586617,1.998115,0.000000,6.262993
0.010000,3.545724,9.501992,3.254980,3.606598,1.998115,-0.000000,6.263513
0.010000,3.581883,9.501290,3.291146,3.626579,1.998115,0.000000,6.264053
0.010000,3.618242,9.500605,3.327511,3.646561,1.998115,0.000000,6.264613
0.010000,3.654802,9.499936,3.364077,3.666542,1.998115,-0.000000,6.265193
0.010000,3.691561,9.499286,3.400842,3.686523,1.998115,0.000000,6.265793
0.010000,3.728521,9.498654,3.437807,3.706504,1.998115,-0.000000,6.266415
0.010000,3.765681,9.498043,3.474972,3.726485,1.998115,0.000000,6.267058
0.010000,3.803041,9.497453,3.512337,3.746466,1.998115,0.000000,6.267722
0.010000,3.840602,9.496885,3.549902,3.766447,1.998115,-0.000000,6.268408
0.010000,3.878362,9.496340,3.587666,3.786429,1.998115,0.000000,6.269117
0.010000,3.916323,9.495820,3.625630,3.806410,1.998115,0.000000,6.269847
0.010000,3.954483,9.495325,3.663794,3.826391,1.998115,-0.000000,6.270601
0.010000,3.992844,9.494857,3.702158,3.846372,1.998115,0.000000,6.271378
0.010000,4.031405,9.494417,3.740722,3.866353,1.998115,0.000000,6.272178
0.010000,4.070167,9.494007,3.779485,3.886334,1.998115,-0.000000,6.273002
0.010000,4.109128,9.493626,3.818448,3.906316,1.998115,0.000000,6.273850
0.010000,4.148290,9.493278,3.857611,3.926297,1.998115,0.000000,6.274722
0.010000,4.187651,9.492962,3.896974,3.946278,1.998115,-0.000000,6.275619
0.010000,4.227213,9.492681,3.936537,3.966259,1.998115,0.000000,6.276541
0.010000,4.266975,9.492436,3.976300,3.986240,1.998115,-0.000000,6.277489
0.010000,4.306936,9.492227,4.016262,4.006221,1.998115,0.000000,6.278462
0.010000,4.347098,9.492058,4.056424,4.026202,1.998115,0.000000,6.279462
0.010000,4.387460,9.491928,4.096786,4.046184,1.998115,0.000000,6.280488
0.010000,4.428022,9.491840,4.137348,4.066165,1.998115,0.000000,6.281541
0.010000,4.468783,9.491795,4.178109,4.086146,1.998115,-0.000000,6.282621
0.010000,4.509744,9.491794,4.219071,4.106127,1.998115,0.000000,0.000543
0.010000,4.550906,9.491840,4.260232,4.126108,1.998115,-0.000000,0.001678
0.010000,4.592266,9.491933,4.301593,4.146089,1.998115,0.000000,0.002842
0.010000,4.633827,9.492076,4.343153,4.166071,1.998115,0.000000,0.004034
0.010000,4.675587,9.492270,4.384914,4.186052,1.998115,0.000000,0.005255
0.010000,4.717547,9.492516,4.426875,4.206033,1.998115,-0.000000,0.006505
0.010000,4.759706,9.492818,4.469035,4.226014,1.998115,0.000000,0.007786
0.010000,4.802065,9.493175,4.511395,4.245995,1.998115,0.000000,0.009096
0.010000,4.844622,9.493591,4.553955,4.265976,1.998115,0.000000,0.010437
0.010000,4.887379,9.494066,4.596714,4.285957,1.998115,-0.000000,0.011808
0.010000,4.930336,9.494603,4.639674,4.305939,1.998115,0.000000,0.013211
0.010000,4.973491,9.495205,4.682833,4.325920,1.998115,-0.000000,0.014646
0.010000,5.016845,9.495871,4.726192,4.345901,1.998115,0.000000,0.016112
0.010000,5.060397,9.496606,4.769751,4.365882,1.998115,0.000000,0.017611
0.010000,5.104149,9.497410,4.813510,4.385863,1.998115,0.000000,0.019143
0.010000,5.148098,9.498285,4.857468,4.405844,1.998115,0.000000,0.020708
0.010000,5.192247,9.499235,4.901627,4.425826,1.998115,0.000000,0.022306
0.010000,5.236593,9.500260,4.945985,4.445807,1.998115,0.000000,0.023938
0.010000,5.281137,9.501364,4.990543,4.465788,1.998115,-0.000000,0.025605
0.010000,5.325879,9.502548,5.035301,4.485769,1.998115,0.000000,0.027307
0.010000,5.370819,9.503814,5.080258,4.505750,1.998115,-0.000000,0.029044
0.010000,5.415956,9.505165,5.125416,4.525731,1.998115,0.000000,0.030816
0.010000,5.461291,9.506604,5.170773,4.545712,1.998115,0.000000,0.032625
0.010000,5.506822,9.508132,5.216330,4.565694,1.998115,0.000000,0.034470
0.010000,5.552550,9.509752,5.262087,4.585675,1.998115,-0.000000,0.036352
0.010000,5.598475,9.511466,5.308043,4.605656,1.998115,0.000000,0.038271
0.010000,5.644596,9.513277,5.354200,4.625637,1.998115,0.000000,0.040228
0.010000,5.690913,9.515187,5.400556,4.645618,1.998115,0.000000,0.042223
0.010000,5.737425,9.517200,5.447112,4.665599,1.998115,-0.000000,0.044257
0.010000,5.784133,9.519317,5.493868,4.685580,1.998115,0.000000,0.046329
0.010000,5.831036,9.521541,5.540824,4.705562,1.998115,-0.000000,0.048442
0.010000,5.878134,9.523875,5.587979,4.725543,1.998115,0.000000,0.050593
0.010000,5.925426,9.526321,5.635335,4.745524,1.998115,0.000000,0.052786
0.010000,5.972912,9.528883,5.682890,4.765505,1.998115,0.000000,0.055018
0.010000,6.020592,9.531563,5.730645,4.785486,1.998115,0.000000,0.057292
0.010000,6.068465,9.534364,5.778600,4.805467,1.998115,0.000000,0.059608
0.010000,6.116530,9.537290,5.826754,4.825449,1.998115,0.000000,0.061966
0.010000,6.164788,9.540342,5.875109,4.845430,1.998115,-0.000000,0.064366
0.010000,6.213238,9.543524,5.923663,4.865411,1.998115,0.000000,0.066808
0.010000,6.261879,9.546839,5.972417,4.885392,1.998115,-0.000000,0.069295
0.010000,6.310711,9.550290,6.021371,4.905373,1.998115,0.000000,0.071824
0.010000,6.359733,9.553881,6.070524,4.925354,1.998115,0.000000,0.074398
0.010000,6.408946,9.557613,6.119878,4.945335,1.998115,0.000000,0.077017
0.010000,6.458347,9.561492,6.169431,4.965317,1.998115,-0.000000,0.079681
0.010000,6.507937,9.565519,6.219184,4.985298,1.998115,0.000000,0.082390
0.010000,6.557714,9.569698,6.269137,5.005279,1.998115,0.000000,0.085145
0.010000,6.607679,9.574033,6.319290,5.025260,1.998115,0.000000,0.087946
0.010000,6.657831,9.578527,6.369642,5.045241,1.998115,-0.000000,0.090794
0.010000,6.708168,9.583183,6.420194,5.065222,1.998115,0.000000,0.093688
0.010000,6.758691,9.588005,6.470947,5.085204,1.998115,-0.000000,0.096631
0.010000,6.809398,9.592997,6.521898,5.105185,1.998115,0.000000,0.099621
0.010000,6.860288,9.598161,6.573050,5.125166,1.998115,0.000000,0.102660
0.010000,6.911361,9.603503,6.624402,5.145147,1.998115,0.000000,0.105748
0.010000,6.962616,9.609024,6.675953,5.165128,1.998115,0.000000,0.108884
0.010000,7.014051,9.614730,6.727704,5.185109,1.998115,0.000000,0.112070
0.010000,7.065667,9.620623,6.779655,5.205090,1.998115,0.000000,0.115306
0.010000,7.117462,9.626708,6.831806,5.225072,1.998115,-0.000000,0.118592
0.010000,7.169434,9.632988,6.884157,5.245053,1.998115,0.000000,0.121929
0.010000,7.221584,9.639468,6.936707,5.265034,1.998115,-0.000000,0.125317
0.010000,7.273909,9.646151,6.989457,5.285015,1.998115,0.000000,0.128756
0.010000,7.326408,9.653041,7.042408,5.304996,1.998115,0.000000,0.132247
0.010000,7.379082,9.660143,7.095557,5.324977,1.998115,0.000000,0.135790
0.010000,7.431927,9.667460,7.148907,5.344959,1.998115,-0.000000,0.139386
0.010000,7.484944,9.674996,7.202457,5.364940,1.998115,0.000000,0.143034
0.010000,7.538130,9.682756,7.256206,5.384921,1.998115,0.000000,0.146735
0.010000,7.591484,9.690744,7.310155,5.404902,1.998115,0.000000,0.150489
0.010000,7.645006,9.698964,7.364304,5.424883,1.998115,-0.000000,0.154297
0.010000,7.698692,9.707420,7.418653,5.444864,1.998115,0.000000,0.158158
0.010000,7.752543,9.716117,7.473201,5.464845,1.998115,-0.000000,0.162074
0.010000,7.806556,9.725058,7.527950,5.484827,1.998115,0.000000,0.166044
0.010000,7.860731,9.734249,7.582898,5.504808,1.998115,0.000000,0.170069
0.010000,7.915064,9.743693,7.638046,5.524789,1.998115,0.000000,0.174148
0.010000,7.969554,9.753396,7.693393,5.544770,1.998115,0.000000,0.178283
0.010000,8.024201,9.763361,7.748941,5.564751,1.998115,0.000000,0.182472
0.010000,8.079001,9.773593,7.804689,5.584732,1.998115,0.000000,0.186717
0.010000,8.133953,9.784097,7.860636,5.604714,1.998115,-0.000000,0.191017
0.010000,8.189056,9.794877,7.916783,5.624695,1.998115,0.000000,0.195373
0.010000,8.244306,9.805937,7.973130,5.644676,1.998115,-0.000000,0.199785
0.010000,8.299703,9.817283,8.029676,5.664657,1.998115,0.000000,0.204252
0.010000,8.355244,9.828919,8.086423,5.684638,1.998115,0.000000,0.208775
0.010000,8.410926,9.840849,8.143369,5.704619,1.998115,0.000000,0.213354
0.010000,8.466749,9.853078,8.200515,5.724600,1.998115,-0.000000,0.217989
0.010000,8.522708,9.865611,8.257861,5.744582,1.998115,0.000000,0.222680
0.010000,8.578803,9.878453,8.315407,5.764563,1.998115,0.000000,0.227426
0.010000,8.635030,9.891607,8.373152,5.784544,1.998115,0.000000,0.232228
0.010000,8.691387,9.905080,8.431098,5.804525,1.998115,-0.000000,0.237086
0.010000,8.747872,9.918875,8.489243,5.824506,1.998115,0.000000,0.242000
0.010000,8.804482,9.932998,8.547588,5.844487,1.998115,-0.000000,0.246969
0.010000,8.861214,9.947452,8.606133,5.864469,1.998115,0.000000,0.251993
0.010000,8.918066,9.962244,8.664877,5.884450,1.998115,0.000000,0.257072
0.010000,8.975035,9.977376,8.723822,5.904431,1.998115,0.000000,0.262206
0.010000,9.032117,9.992855,8.782966,5.924412,1.998115,0.000000,0.267395
0.010000,9.089311,10.008685,8.842310,5.944393,1.998115,0.000000,0.272638
0.010000,9.146613,10.024870,8.901854,5.964374,1.998115,0.000000,0.277934
0.010000,9.204020,10.041415,8.961597,5.984355,1.998115,-0.000000,0.283285
0.010000,9.261529,10.058325,9.021541,6.004337,1.998115,0.000000,0.288688
0.010000,9.319136,10.075605,9.081684,6.024318,1.998115,-0.000000,0.294145
0.010000,9.376839,10.093259,9.142027,6.044299,1.998115,0.000000,0.299653
0.010000,9.434634,10.111291,9.202570,6.064280,1.998115,0.000000,0.305214
0.010000,9.492457,10.129687,9.263249,6.071561,0.728075,-127.004022,0.310819
0.010000,9.550151,10.148399,9.323901,6.058860,-1.270040,-199.811535,0.316455
0.010000,9.607582,10.167385,9.384390,6.038879,-1.998115,-72.807514,0.322106
0.010000,9.664716,10.186632,9.444679,6.018898,-1.998115,-0.000000,0.327768
0.010000,9.721551,10.206138,9.504768,5.998917,-1.998115,0.000000,0.333440
0.010000,9.778086,10.225900,9.564657,5.978936,-1.998115,0.000000,0.339121
0.010000,9.834319,10.245916,9.624347,5.958955,-1.998115,0.000000,0.344810
0.010000,9.890250,10.266184,9.683836,5.938974,-1.998115,-0.000000,0.350505
0.010000,9.945877,10.286701,9.743126,5.918992,-1.998115,0.000000,0.356205
0.010000,10.001198,10.307464,9.802216,5.899011,-1.998115,0.000000,0.361909
0.010000,10.056214,10.328472,9.861106,5.879030,-1.998115,-0.000000,0.367616
0.010000,10.110922,10.349721,9.919797,5.859049,-1.998115,0.000000,0.373324
0.010000,10.165323,10.371208,9.978287,5.839068,-1.998115,0.000000,0.379033
0.010000,10.219415,10.392931,10.036578,5.819087,-1.998115,0.000000,0.384741
0.010000,10.273197,10.414887,10.094669,5.799105,-1.998115,0.000000,0.390447
0.010000,10.326668,10.437073,10.152560,5.779124,-1.998115,-0.000000,0.396150
0.010000,10.379827,10.459486,10.210252,5.759143,-1.998115,0.000000,0.401849
0.010000,10.432675,10.482123,10.267743,5.739162,-1.998115,-0.000000,0.407543
0.010000,10.485209,10.504980,10.325035,5.719181,-1.998115,0.000000,0.413231
0.010000,10.537430,10.528055,10.382127,5.699200,-1.998115,0.000000,0.418911
0.010000,10.589337,10.551344,10.439019,5.679219,-1.998115,0.000000,0.424582
0.010000,10.640929,10.574844,10.495711,5.659237,-1.998115,0.000000,0.430245
0.010000,10.692206,10.598551,10.552204,5.639256,-1.998115,-0.000000,0.435896
0.010000,10.743168,10.622463,10.608496,5.619275,-1.998115,0.000000,0.441536
0.010000,10.793813,10.646575,10.664589,5.599294,-1.998115,0.000000,0.447163
0.010000,10.844143,10.670886,10.720482,5.579313,-1.998115,0.000000,0.452777
0.010000,10.894156,10.695389,10.776175,5.559332,-1.998115,-0.000000,0.458377
0.010000,10.943852,10.720084,10.831669,5.539350,-1.998115,0.000000,0.463960
0.010000,10.993231,10.744965,10.886962,5.519369,-1.998115,0.000000,0.469528
0.010000,11.042293,10.770029,10.942056,5.499388,-1.998115,-0.000000,0.475078
0.010000,11.091039,10.795273,10.996950,5.479407,-1.998115,0.000000,0.480611
0.010000,11.139466,10.820692,11.051644,5.459426,-1.998115,0.000000,0.486124
0.010000,11.187577,10.846285,11.106139,5.439445,-1.998115,0.000000,0.491617
0.010000,11.235372,10.872045,11.160433,5.419464,-1.998115,0.000000,0.497090
0.010000,11.282849,10.897971,11.214528,5.399482,-1.998115,-0.000000,0.502542
0.010000,11.330009,10.924058,11.268423,5.379501,-1.998115,0.000000,0.507971
0.010000,11.376854,10.950302,11.322118,5.359520,-1.998115,-0.000000,0.513378
0.010000,11.423382,10.976700,11.375613,5.339539,-1.998115,0.000000,0.518761
0.010000,11.469595,11.003248,11.428909,5.319558,-1.998115,0.000000,0.524120
0.010000,11.515492,11.029942,11.482004,5.299577,-1.998115,0.000000,0.529454
0.010000,11.561074,11.056779,11.534900,5.279595,-1.998115,0.000000,0.534762
0.010000,11.606342,11.083755,11.587596,5.259614,-1.998115,-0.000000,0.540044
0.010000,11.651296,11.110865,11.640093,5.239633,-1.998115,0.000000,0.545299
0.010000,11.695937,11.138107,11.692389,5.219652,-1.998115,0.000000,0.550527
0.010000,11.740266,11.165476,11.744486,5.199671,-1.998115,0.000000,0.555727
0.010000,11.784282,11.192968,11.796382,5.179690,-1.998115,-0.000000,0.560899
0.010000,11.827987,11.220581,11.848079,5.159709,-1.998115,0.000000,0.566041
0.010000,11.871381,11.248310,11.899577,5.139727,-1.998115,0.000000,0.571154
0.010000,11.914466,11.276151,11.950874,5.119746,-1.998115,-0.000000,0.576238
0.010000,11.957241,11.304100,12.001971,5.099765,-1.998115,0.000000,0.581291
0.010000,11.999709,11.332155,12.052869,5.079784,-1.998115,0.000000,0.586313
0.010000,12.036249,11.356433,12.103567,5.059803,-1.998115,0.000000,0.583946
0.010000,12.078486,11.384111,12.154065,5.039822,-1.998115,0.000000,0.576269
0.010000,12.120765,11.411357,12.204364,5.019840,-1.998115,-0.000000,0.568609
0.010000,12.163083,11.438172,12.254462,4.999859,-1.998115,0.000000,0.560971
0.010000,12.205435,11.464557,12.304361,4.979878,-1.998115,-0.000000,0.553354
0.010000,12.247816,11.490515,12.354060,4.959897,-1.998115,0.000000,0.545762
0.010000,12.290221,11.516048,12.403559,4.939916,-1.998115,0.000000,0.538197
0.010000,12.332646,11.541159,12.452858,4.919935,-1.998115,0.000000,0.530660
0.010000,12.375086,11.565849,12.501957,4.899954,-1.998115,0.000000,0.523154
0.010000,12.417536,11.590122,12.550857,4.879972,-1.998115,-0.000000,0.515681
0.010000,12.459992,11.613979,12.599557,4.859991,-1.998115,0.000000,0.508243
0.010000,12.502448,11.637424,12.648057,4.840010,-1.998115,0.000000,0.500841
0.010000,12.544901,11.660460,12.696357,4.820029,-1.998115,0.000000,0.493478
0.010000,12.587346,11.683089,12.744457,4.800048,-1.998115,-0.000000,0.486155
0.010000,12.629777,11.705315,12.792358,4.780067,-1.998115,0.000000,0.478874
0.010000,12.672192,11.727142,12.840059,4.760085,-1.998115,0.000000,0.471637
0.010000,12.714584,11.748571,12.887560,4.740104,-1.998115,-0.000000,0.464446
0.010000,12.756950,11.769607,12.934861,4.720123,-1.998115,0.000000,0.457301
0.010000,12.799285,11.790254,12.981962,4.700142,-1.998115,0.000000,0.450206
0.010000,12.841585,11.810514,13.028864,4.680161,-1.998115,0.000000,0.443161
0.010000,12.883845,11.830392,13.075565,4.660180,-1.998115,0.000000,0.436167
0.010000,12.926061,11.849891,13.122067,4.640199,-1.998115,-0.000000,0.429227
0.010000,12.968229,11.869015,13.168369,4.620217,-1.998115,0.000000,0.422341
0.010000,13.010345,11.887768,13.214472,4.600236,-1.998115,-0.000000,0.415511
0.010000,13.052404,11.906155,13.260374,4.580255,-1.998115,0.000000,0.408738
0.010000,13.094402,11.924178,13.306077,4.560274,-1.998115,0.000000,0.402023
0.010000,13.136336,11.941843,13.351580,4.540293,-1.998115,0.000000,0.395368
0.010000,13.178201,11.959153,13.396883,4.520312,-1.998115,0.000000,0.388773
0.010000,13.219994,11.976113,13.441986,4.500330,-1.998115,-0.000000,0.382240
0.010000,13.261711,11.992727,13.486889,4.480349,-1.998115,0.000000,0.375768
0.010000,13.303348,12.008999,13.531593,4.460368,-1.998115,0.000000,0.369360
0.010000,13.344901,12.024934,13.576097,4.440387,-1.998115,0.000000,0.363016
0.010000,13.386367,12.040536,13.620401,4.420406,-1.998115,-0.000000,0.356737
0.010000,13.427742,12.055809,13.664505,4.400425,-1.998115,0.000000,0.350524
0.010000,13.469023,12.070759,13.708409,4.380444,-1.998115,0.000000,0.344376
0.010000,13.510206,12.085388,13.752114,4.360462,-1.998115,-0.000000,0.338295
0.010000,13.551288,12.099703,13.795618,4.340481,-1.998115,0.000000,0.332282
0.010000,13.592266,12.113707,13.838923,4.320500,-1.998115,0.000000,0.326336
0.010000,13.633136,12.127406,13.882028,4.300519,-1.998115,0.000000,0.320458
0.010000,13.673896,12.140802,13.924934,4.280538,-1.998115,0.000000,0.314649
0.010000,13.714543,12.153902,13.967639,4.260557,-1.998115,-0.000000,0.308909
0.010000,13.755073,12.166710,14.010145,4.240575,-1.998115,0.000000,0.303238
0.010000,13.795484,12.179229,14.052451,4.220594,-1.998115,-0.000000,0.297636
0.010000,13.835773,12.191466,14.094557,4.200613,-1.998115,0.000000,0.292104
0.010000,13.875937,12.203424,14.136463,4.180632,-1.998115,0.000000,0.286642
0.010000,13.915973,12.215107,14.178169,4.160651,-1.998115,0.000000,0.281249
0.010000,13.955879,12.226521,14.219676,4.140670,-1.998115,0.000000,0.275926
0.010000,13.995653,12.237670,14.260983,4.120689,-1.998115,-0.000000,0.270673
0.010000,14.035292,12.248559,14.302090,4.100707,-1.998115,0.000000,0.265489
0.010000,14.074793,12.259191,14.342997,4.080726,-1.998115,0.000000,0.260376
0.010000,14.114154,12.269571,14.383704,4.060745,-1.998115,0.000000,0.255331
0.010000,14.153374,12.279704,14.424212,4.040764,-1.998115,-0.000000,0.250357
0.010000,14.192450,12.289595,14.464519,4.020783,-1.998115,0.000000,0.245451
0.010000,14.231379,12.299246,14.504627,4.000802,-1.998115,0.000000,0.240615
0.010000,14.270160,12.308664,14.544535,3.980820,-1.998115,-0.000000,0.235847
0.010000,14.308790,12.317852,14.584244,3.960839,-1.998115,0.000000,0.231148
0.010000,14.347269,12.326814,14.623752,3.940858,-1.998115,0.000000,0.226517
0.010000,14.385594,12.335554,14.663061,3.920877,-1.998115,-0.000000,0.221955
0.010000,14.423762,12.344078,14.702170,3.900896,-1.998115,0.000000,0.217459
0.010000,14.461774,12.352388,14.741079,3.880915,-1.998115,0.000000,0.213031
0.010000,14.499625,12.360489,14.779788,3.860934,-1.998115,-0.000000,0.208670
0.010000,14.537317,12.368386,14.818297,3.840952,-1.998115,0.000000,0.204375
0.010000,14.574845,12.376081,14.856607,3.820971,-1.998115,0.000000,0.200146
0.010000,14.612210,12.383580,14.894717,3.800990,-1.998115,-0.000000,0.195982
0.010000,14.649409,12.390886,14.932627,3.781009,-1.998115,0.000000,0.191883
0.010000,14.686442,12.398003,14.970337,3.761028,-1.998115,0.000000,0.187849
0.010000,14.723306,12.404934,15.007847,3.741047,-1.998115,-0.000000,0.183879
0.010000,14.760001,12.411685,15.045158,3.721065,-1.998115,0.000000,0.179972
0.010000,14.796525,12.418257,15.082269,3.701084,-1.998115,-0.000000,0.176129
0.010000,14.832877,12.424656,15.119180,3.681103,-1.998115,0.000000,0.172347
0.010000,14.869056,12.430884,15.155891,3.661122,-1.998115,0.000000,0.168628
0.010000,14.905061,12.436946,15.192402,3.641141,-1.998115,-0.000000,0.164969
0.010000,14.940890,12.442845,15.228714,3.621160,-1.998115,0.000000,0.161372
0.010000,14.976543,12.448584,15.264825,3.601179,-1.998115,-0.000000,0.157834
0.010000,15.012018,12.454166,15.300737,3.581197,-1.998115,0.000000,0.154356
0.010000,15.047315,12.459596,15.336449,3.561216,-1.998115,0.000000,0.150937
0.010000,15.082432,12.464877,15.371962,3.541235,-1.998115,-0.000000,0.147576
0.010000,15.117369,12.470012,15.407274,3.521254,-1.998115,0.000000,0.144273
0.010000,15.152125,12.475003,15.442387,3.501273,-1.998115,0.000000,0.141027
0.010000,15.186699,12.479856,15.477299,3.481292,-1.998115,-0.000000,0.137837
0.010000,15.221090,12.484571,15.512012,3.461310,-1.998115,0.000000,0.134703
0.010000,15.255298,12.489153,15.546526,3.441329,-1.998115,0.000000,0.131625
0.010000,15.289321,12.493605,15.580839,3.421348,-1.998115,-0.000000,0.128600
0.010000,15.323160,12.497930,15.614953,3.401367,-1.998115,0.000000,0.125630
0.010000,15.356812,12.502130,15.648866,3.381386,-1.998115,0.000000,0.122713
0.010000,15.390279,12.506209,15.682580,3.361405,-1.998115,-0.000000,0.119849
0.010000,15.423558,12.510169,15.716094,3.341424,-1.998115,0.000000,0.117036
0.010000,15.456650,12.514013,15.749409,3.321442,-1.998115,-0.000000,0.114275
0.010000,15.489553,12.517745,15.782523,3.301461,-1.998115,0.000000,0.111565
0.010000,15.522268,12.521365,15.815438,3.281480,-1.998115,0.000000,0.108904
0.010000,15.554794,12.524879,15.848153,3.261499,-1.998115,-0.000000,0.106293
0.010000,15.587130,12.528287,15.880668,3.241518,-1.998115,0.000000,0.103731
0.010000,15.619276,12.531592,15.912983,3.221537,-1.998115,-0.000000,0.101217
0.010000,15.651231,12.534798,15.945099,3.201555,-1.998115,0.000000,0.098751
0.010000,15.682995,12.537906,15.977014,3.181574,-1.998115,0.000000,0.096331
0.010000,15.714567,12.540919,16.008730,3.161593,-1.998115,-0.000000,0.093958
0.010000,15.745948,12.543839,16.040246,3.141612,-1.998115,0.000000,0.091630
0.010000,15.777136,12.546669,16.071562,3.121631,-1.998115,0.000000,0.089348
0.010000,15.808131,12.549411,16.102679,3.101650,-1.998115,-0.000000,0.087109
0.010000,15.838933,12.552067,16.133595,3.081669,-1.998115,0.000000,0.084915
0.010000,15.869542,12.554639,16.164312,3.061687,-1.998115,0.000000,0.082764
0.010000,15.899957,12.557129,16.194829,3.041706,-1.998115,-0.000000,0.080655
0.010000,15.930178,12.559541,16.225146,3.021725,-1.998115,0.000000,0.078589
0.010000,15.960205,12.561875,16.255264,3.001744,-1.998115,-0.000000,0.076563
0.010000,15.990037,12.564133,16.285181,2.981763,-1.998115,0.000000,0.074579
0.010000,16.019675,12.566319,16.314899,2.961782,-1.998115,-0.000000,0.072635
0.010000,16.049117,12.568433,16.344417,2.941800,-1.998115,0.000000,0.070730
0.010000,16.078363,12.570477,16.373735,2.921819,-1.998115,0.000000,0.068864
0.010000,16.107414,12.572454,16.402853,2.901838,-1.998115,0.000000,0.067037
0.010000,16.136270,12.574366,16.431772,2.881857,-1.998115,-0.000000,0.065248
0.010000,16.164929,12.576213,16.460490,2.861876,-1.998115,0.000000,0.063496
0.010000,16.193392,12.577998,16.489009,2.841895,-1.998115,0.000000,0.061781
0.010000,16.221658,12.579723,16.517328,2.821914,-1.998115,-0.000000,0.060102
0.010000,16.249728,12.581389,16.545448,2.801932,-1.998115,0.000000,0.058458
0.010000,16.277601,12.582997,16.573367,2.781951,-1.998115,-0.000000,0.056850
0.010000,16.305277,12.584551,16.601087,2.761970,-1.998115,0.000000,0.055276
0.010000,16.332756,12.586050,16.628606,2.741989,-1.998115,0.000000,0.053737
0.010000,16.360038,12.587497,16.655926,2.722008,-1.998115,0.000000,0.052230
0.010000,16.387122,12.588893,16.683046,2.702027,-1.998115,0.000000,0.050757
0.010000,16.414009,12.590239,16.709967,2.682045,-1.998115,-0.000000,0.049316
0.010000,16.440698,12.591537,16.736687,2.662064,-1.998115,0.000000,0.047908
0.010000,16.467189,12.592789,16.763208,2.642083,-1.998115,0.000000,0.046530
0.010000,16.493482,12.593996,16.789529,2.622102,-1.998115,-0.000000,0.045184
0.010000,16.519577,12.595158,16.815650,2.602121,-1.998115,0.000000,0.043867
0.010000,16.545474,12.596278,16.841571,2.582140,-1.998115,-0.000000,0.042581
0.010000,16.571173,12.597357,16.867293,2.562159,-1.998115,0.000000,0.041324
0.010000,16.596674,12.598396,16.892815,2.542177,-1.998115,0.000000,0.040096
0.010000,16.621976,12.599395,16.918137,2.522196,-1.998115,0.000000,0.038897
0.010000,16.647080,12.600358,16.943259,2.502215,-1.998115,-0.000000,0.037725
0.010000,16.671985,12.601283,16.968181,2.482234,-1.998115,0.000000,0.036582
0.010000,16.696691,12.602174,16.992903,2.462253,-1.998115,0.000000,0.035465
0.010000,16.721199,12.603030,17.017426,2.442272,-1.998115,-0.000000,0.034374
0.010000,16.745508,12.603853,17.041749,2.422291,-1.998115,0.000000,0.033310
0.010000,16.769618,12.604644,17.065872,2.402309,-1.998115,-0.000000,0.032272
0.010000,16.793529,12.605403,17.089795,2.382328,-1.998115,0.000000,0.031258
0.010000,16.817241,12.606133,17.113518,2.362347,-1.998115,0.000000,0.030270
0.010000,16.840754,12.606834,17.137042,2.342366,-1.998115,0.000000,0.029306
0.010000,16.864068,12.607506,17.160366,2.322385,-1.998115,0.000000,0.028365
0.010000,16.887183,12.608151,17.183490,2.302404,-1.998115,-0.000000,0.027449
0.010000,16.910099,12.608770,17.206414,2.282422,-1.998115,0.000000,0.026555
0.010000,16.932815,12.609364,17.229138,2.262441,-1.998115,0.000000,0.025684
0.010000,16.955333,12.609932,17.251662,2.242460,-1.998115,-0.000000,0.024836
0.010000,16.977651,12.610478,17.273987,2.222479,-1.998115,0.000000,0.024009
0.010000,16.999769,12.611000,17.296112,2.202498,-1.998115,-0.000000,0.023203
0.010000,17.021689,12.611500,17.318037,2.182517,-1.998115,0.000000,0.022419
0.010000,17.043409,12.611979,17.339762,2.162536,-1.998115,0.000000,0.021655
0.010000,17.064929,12.612437,17.361288,2.142554,-1.998115,0.000000,0.020912
0.010000,17.086250,12.612875,17.382613,2.122573,-1.998115,-0.000000,0.020188
0.010000,17.107372,12.613294,17.403739,2.102592,-1.998115,0.000000,0.019484
0.010000,17.128294,12.613694,17.424665,2.082611,-1.998115,0.000000,0.018799
0.010000,17.149017,12.614077,17.445392,2.062630,-1.998115,-0.000000,0.018133
0.010000,17.169540,12.614443,17.465918,2.042649,-1.998115,0.000000,0.017485
0.010000,17.189864,12.614792,17.486244,2.022667,-1.998115,-0.000000,0.016856
0.010000,17.209988,12.615125,17.506371,2.002686,-1.998115,0.000000,0.016244
0.010000,17.229912,12.615442,17.526298,1.982705,-1.998115,0.000000,0.015649
0.010000,17.249637,12.615745,17.546025,1.962724,-1.998115,0.000000,0.015071
0.010000,17.269162,12.616034,17.565553,1.942743,-1.998115,-0.000000,0.014510
0.010000,17.288488,12.616309,17.584880,1.922762,-1.998115,-0.000000,0.013965
0.010000,17.307614,12.616571,17.604008,1.902781,-1.998115,0.000000,0.013436
0.010000,17.326540,12.616821,17.622936,1.882799,-1.998115,0.000000,0.012923
0.010000,17.345267,12.617058,17.641664,1.862818,-1.998115,-0.000000,0.012425
0.010000,17.363793,12.617284,17.660192,1.842837,-1.998115,0.000000,0.011942
0.010000,17.382121,12.617498,17.678521,1.822856,-1.998115,0.000000,0.011474
0.010000,17.400248,12.617702,17.696649,1.802875,-1.998115,-0.000000,0.011020
0.010000,17.418176,12.617896,17.714578,1.782894,-1.998115,0.000000,0.010580
0.010000,17.435904,12.618080,17.732307,1.762912,-1.998115,0.000000,0.010154
0.010000,17.453432,12.618254,17.749836,1.742931,-1.998115,-0.000000,0.009741
0.010000,17.470761,12.618419,17.767166,1.722950,-1.998115,0.000000,0.009341
0.010000,17.487890,12.618576,17.784295,1.702969,-1.998115,-0.000000,0.008954
0.010000,17.504819,12.618724,17.801225,1.682988,-1.998115,-0.000000,0.008580
0.010000,17.521548,12.618865,17.817955,1.663007,-1.998115,0.000000,0.008218
0.010000,17.538078,12.618998,17.834485,1.643026,-1.998115,-0.000000,0.007868
0.010000,17.554408,12.619124,17.850816,1.623044,-1.998115,-0.000000,0.007529
0.010000,17.570538,12.619242,17.866946,1.603063,-1.998115,0.000000,0.007202
0.010000,17.586468,12.619355,17.882877,1.583082,-1.998115,0.000000,0.006886
0.010000,17.602199,12.619460,17.898608,1.563101,-1.998115,-0.000000,0.006581
0.010000,17.617730,12.619560,17.914139,1.543120,-1.998115,-0.000000,0.006287
0.010000,17.633061,12.619655,17.929470,1.523139,-1.998115,0.000000,0.006003
0.010000,17.648192,12.619743,17.944602,1.503157,-1.998115,0.000000,0.005728
0.010000,17.663123,12.619827,17.959533,1.483176,-1.998115,0.000000,0.005464
0.010000,17.677855,12.619906,17.974265,1.463195,-1.998115,-0.000000,0.005210
0.010000,17.692387,12.619979,17.988797,1.443214,-1.998115,0.000000,0.004964
0.010000,17.706719,12.620049,18.003130,1.423233,-1.998115,0.000000,0.004728
0.010000,17.720851,12.620114,18.017262,1.403252,-1.998115,0.000000,0.004500
0.010000,17.734784,12.620175,18.031195,1.383271,-1.998115,0.000000,0.004282
0.010000,17.748516,12.620233,18.044927,1.363289,-1.998115,0.000000,0.004071
0.010000,17.762049,12.620286,18.058460,1.343308,-1.998115,0.000000,0.003869
0.010000,17.775382,12.620337,18.071794,1.323327,-1.998115,-0.000000,0.003675
0.010000,17.788516,12.620384,18.084927,1.303346,-1.998115,0.000000,0.003488
0.010000,17.801449,12.620428,18.097860,1.283365,-1.998115,-0.000000,0.003309
0.010000,17.814183,12.620469,18.110594,1.263384,-1.998115,0.000000,0.003137
0.010000,17.826717,12.620507,18.123128,1.243402,-1.998115,0.000000,0.002972
0.010000,17.839051,12.620543,18.135462,1.223421,-1.998115,-0.000000,0.002814
0.010000,17.851185,12.620576,18.147597,1.203440,-1.998115,0.000000,0.002662
0.010000,17.863119,12.620607,18.159531,1.183459,-1.998115,-0.000000,0.002517
0.010000,17.874854,12.620635,18.171266,1.163478,-1.998115,0.000000,0.002379
0.010000,17.886389,12.620662,18.182801,1.143497,-1.998115,0.000000,0.002246
0.010000,17.897724,12.620687,18.194136,1.123516,-1.998115,0.000000,0.002119
0.010000,17.908859,12.620710,18.205271,1.103534,-1.998115,0.000000,0.001998
0.010000,17.919795,12.620731,18.216206,1.083553,-1.998115,-0.000000,0.001882
0.010000,17.930530,12.620751,18.226942,1.063572,-1.998115,0.000000,0.001772
0.010000,17.941066,12.620769,18.237478,1.043591,-1.998115,0.000000,0.001667
0.010000,17.951402,12.620785,18.247814,1.023610,-1.998115,0.000000,0.001566
0.010000,17.961538,12.620801,18.257950,1.003629,-1.998115,0.000000,0.001471
0.010000,17.971474,12.620815,18.267886,0.983647,-1.998115,0.000000,0.001380
0.010000,17.981211,12.620828,18.277623,0.963666,-1.998115,0.000000,0.001294
0.010000,17.990748,12.620840,18.287160,0.943685,-1.998115,-0.000000,0.001211
0.010000,18.000085,12.620851,18.296497,0.923704,-1.998115,0.000000,0.001133
0.010000,18.009222,12.620861,18.305634,0.903723,-1.998115,-0.000000,0.001059
0.010000,18.018159,12.620870,18.314571,0.883742,-1.998115,0.000000,0.000989
0.010000,18.026897,12.620878,18.323309,0.863761,-1.998115,-0.000000,0.000923
0.010000,18.035434,12.620886,18.331846,0.843779,-1.998115,0.000000,0.000860
0.010000,18.043772,12.620893,18.340184,0.823798,-1.998115,0.000000,0.000800
0.010000,18.051910,12.620899,18.348322,0.803817,-1.998115,0.000000,0.000744
0.010000,18.059849,12.620905,18.356261,0.783836,-1.998115,-0.000000,0.000690
0.010000,18.067587,12.620910,18.363999,0.763855,-1.998115,0.000000,0.000640
0.010000,18.075126,12.620915,18.371538,0.743874,-1.998115,-0.000000,0.000593
0.010000,18.082465,12.620919,18.378876,0.723892,-1.998115,0.000000,0.000548
0.010000,18.089604,12.620923,18.386015,0.703911,-1.998115,0.000000,0.000506
0.010000,18.096543,12.620926,18.392955,0.683930,-1.998115,0.000000,0.000467
0.010000,18.103282,12.620929,18.399694,0.663949,-1.998115,-0.000000,0.000430
0.010000,18.109822,12.620932,18.406234,0.643968,-1.998115,0.000000,0.000395
0.010000,18.116162,12.620934,18.412573,0.623987,-1.998115,0.000000,0.000363
0.010000,18.122301,12.620936,18.418713,0.604006,-1.998115,-0.000000,0.000332
0.010000,18.128242,12.620938,18.424654,0.584024,-1.998115,0.000000,0.000304
0.010000,18.133982,12.620940,18.430394,0.564043,-1.998115,-0.000000,0.000277
0.010000,18.139522,12.620941,18.435934,0.544062,-1.998115,0.000000,0.000252
0.010000,18.144863,12.620943,18.441275,0.524081,-1.998115,-0.000000,0.000229
0.010000,18.150004,12.620944,18.446416,0.504100,-1.998115,0.000000,0.000207
0.010000,18.154945,12.620945,18.451357,0.484119,-1.998115,0.000000,0.000187
0.010000,18.159686,12.620945,18.456098,0.464137,-1.998115,0.000000,0.000169
0.010000,18.164228,12.620946,18.460640,0.444156,-1.998115,-0.000000,0.000151
0.010000,18.168570,12.620947,18.464982,0.424175,-1.998115,0.000000,0.000135
0.010000,18.172711,12.620947,18.469123,0.404194,-1.998115,-0.000000,0.000121
0.010000,18.176653,12.620948,18.473065,0.384213,-1.998115,0.000000,0.000107
0.010000,18.180396,12.620948,18.476808,0.364232,-1.998115,-0.000000,0.000094
0.010000,18.183938,12.620948,18.480350,0.344251,-1.998115,0.000000,0.000083
0.010000,18.187281,12.620949,18.483693,0.324269,-1.998115,0.000000,0.000072
0.010000,18.190424,12.620949,18.486835,0.304288,-1.998115,-0.000000,0.000063
0.010000,18.193366,12.620949,18.489778,0.284307,-1.998115,0.000000,0.000054
0.010000,18.196110,12.620949,18.492522,0.264326,-1.998115,-0.000000,0.000046
0.010000,18.198653,12.620949,18.495065,0.244345,-1.998115,0.000000,0.000039
0.010000,18.200997,12.620949,18.497408,0.224364,-1.998115,0.000000,0.000032
0.010000,18.203140,12.620950,18.499552,0.204382,-1.998115,-0.000000,0.000027
0.010000,18.205084,12.620950,18.501496,0.184401,-1.998115,0.000000,0.000021
0.010000,18.206828,12.620950,18.503240,0.164420,-1.998115,0.000000,0.000017
0.010000,18.208373,12.620950,18.504785,0.144439,-1.998115,0.000000,0.000013
0.010000,18.209717,12.620950,18.506129,0.124458,-1.998115,-0.000000,0.000010
0.010000,18.210862,12.620950,18.507274,0.104477,-1.998115,0.000000,0.000007
0.010000,18.211807,12.620950,18.508219,0.084496,-1.998115,-0.000000,0.000004
0.010000,18.212552,12.620950,18.508964,0.064514,-1.998115,0.000000,0.000003
0.010000,18.213097,12.620950,18.509509,0.044533,-1.998115,-0.000000,0.000001
0.010000,18.213442,12.620950,18.509854,0.024552,-1.998115,-0.000000,0.000000
0.010000,18.213601,12.620950,18.510013,0.007281,-1.727133,27.098254,0.000000
0.010000,18.213638,12.620950,18.510050,0.000000,-0.728075,99.905768,0.000000
0.010000,18.213638,12.620950,18.510050,0.000000,0.000000,72.807514,0.000000
