dt,x,y,position,velocity,acceleration,jerk,heading
0.010000,0.303831,8.655328,0.000050,0.009976,0.997601,99.760121,0.000324
0.010000,0.303826,8.655328,0.000055,0.000497,-0.947946,-194.554756,0.000318
0.010000,0.303817,8.655328,0.000065,0.000993,0.049640,99.758681,0.000307
0.010000,0.303802,8.655328,0.000080,0.001489,0.049612,-0.002881,0.000291
0.010000,0.303782,8.655328,0.000100,0.001985,0.049568,-0.004321,0.000269
0.010000,0.303757,8.655328,0.000124,0.002480,0.049511,-0.005761,0.000242
0.010000,0.303727,8.655328,0.000154,0.002974,0.049439,-0.007201,0.000210
0.010000,0.303693,8.655328,0.000189,0.003468,0.049352,-0.008641,0.000172
0.010000,0.303653,8.655328,0.000228,0.003960,0.049252,-0.010081,0.000128
0.010000,0.303608,8.655328,0.000273,0.004452,0.049136,-0.011520,0.000080
0.010000,0.303559,8.655328,0.000322,0.004942,0.049007,-0.012960,0.000026
0.010000,0.304745,8.655328,0.001508,0.118550,11.360852,1131.184507,6.283152
0.010000,0.307080,8.655328,0.003843,0.233504,11.495333,13.448111,6.283087
0.010000,0.309609,8.655327,0.006373,0.252973,1.946907,-954.842567,6.283017
0.010000,0.312334,8.655327,0.009097,0.272444,1.947158,0.025032,6.282942
0.010000,0.315253,8.655326,0.012016,0.291918,1.947410,0.025268,6.282861
0.010000,0.318367,8.655325,0.015130,0.311380,1.946212,-0.119804,6.282776
0.010000,0.321675,8.655323,0.018439,0.330860,1.947928,0.171589,6.282685
0.010000,0.325179,8.655321,0.021942,0.350342,1.948255,0.032670,6.282589
0.010000,0.328877,8.655319,0.025640,0.369819,1.947641,-0.061389,6.282487
0.010000,0.332770,8.655316,0.029533,0.389299,1.948031,0.039035,6.282381
0.010000,0.336858,8.655312,0.033621,0.408792,1.949254,0.122272,6.282269
0.010000,0.341141,8.655308,0.037904,0.428276,1.948422,-0.083250,6.282153
0.010000,0.345618,8.655303,0.042382,0.447767,1.949143,0.072174,6.282031
0.010000,0.350291,8.655298,0.047054,0.467271,1.950419,0.127596,6.281904
0.010000,0.355159,8.655291,0.051922,0.486757,1.948537,-0.188183,6.281773
0.010000,0.360221,8.655284,0.056984,0.506269,1.951266,0.272866,6.281636
0.010000,0.365479,8.655275,0.062242,0.525770,1.950077,-0.118881,6.281495
0.010000,0.370932,8.655266,0.067695,0.545284,1.951341,0.126337,6.281349
0.010000,0.376580,8.655255,0.073343,0.564797,1.951323,-0.001771,6.281198
0.010000,0.382423,8.655243,0.079186,0.584315,1.951865,0.054166,6.281042
0.010000,0.388461,8.655229,0.085225,0.603838,1.952269,0.040477,6.280882
0.010000,0.394695,8.655214,0.091458,0.623367,1.952838,0.056830,6.280717
0.010000,0.401124,8.655198,0.097887,0.642896,1.952920,0.008268,6.280547
0.010000,0.407748,8.655180,0.104512,0.662438,1.954255,0.133473,6.280373
0.010000,0.414568,8.655160,0.111331,0.681971,1.953280,-0.097539,6.280195
0.010000,0.421583,8.655138,0.118347,0.701527,1.955588,0.230795,6.280011
0.010000,0.428794,8.655115,0.125557,0.721071,1.954400,-0.118780,6.279824
0.010000,0.436200,8.655089,0.132964,0.740631,1.955991,0.159101,6.279632
0.010000,0.443802,8.655062,0.140566,0.760200,1.956915,0.092423,6.279436
0.010000,0.451599,8.655032,0.148363,0.779756,1.955631,-0.128425,6.279236
0.010000,0.459593,8.654999,0.156356,0.799336,1.957997,0.236571,6.279032
0.010000,0.467782,8.654964,0.164546,0.818921,1.958494,0.049733,6.278823
0.010000,0.476167,8.654927,0.172931,0.838498,1.957693,-0.080057,6.278611
0.010000,0.484748,8.654887,0.181512,0.858092,1.959431,0.173771,6.278395
0.010000,0.493524,8.654844,0.190289,0.877695,1.960206,0.077458,6.278174
0.010000,0.502497,8.654798,0.199262,0.897302,1.960780,0.057478,6.277950
0.010000,0.511666,8.654749,0.208431,0.916905,1.960230,-0.055083,6.277723
0.010000,0.521031,8.654696,0.217796,0.936525,1.962070,0.184048,6.277491
0.010000,0.530593,8.654641,0.227357,0.956153,1.962718,0.064841,6.277256
0.010000,0.540350,8.654582,0.237115,0.975786,1.963369,0.065087,6.277018
0.010000,0.550305,8.654519,0.247069,0.995427,1.964039,0.066994,6.276776
0.010000,0.560455,8.654453,0.257220,1.015071,1.964443,0.040400,6.276531
0.010000,0.570802,8.654383,0.267567,1.034722,1.965106,0.066304,6.276282
0.010000,0.581346,8.654309,0.278111,1.054385,1.966254,0.114822,6.276031
0.010000,0.592086,8.654230,0.288852,1.074055,1.966999,0.074405,6.275776
0.010000,0.603023,8.654148,0.299789,1.093732,1.967761,0.076259,6.275518
0.010000,0.614157,8.654061,0.310923,1.113418,1.968542,0.078103,6.275258
0.010000,0.625487,8.653970,0.322254,1.133111,1.969342,0.079935,6.274994
0.010000,0.637015,8.653874,0.333783,1.152813,1.970159,0.081755,6.274728
0.010000,0.648740,8.653773,0.345508,1.172523,1.970995,0.083563,6.274459
0.010000,0.660662,8.653667,0.357430,1.192241,1.971848,0.085358,6.274188
0.010000,0.672781,8.653557,0.369550,1.211968,1.972720,0.087141,6.273914
0.010000,0.685098,8.653441,0.381867,1.231704,1.973609,0.088910,6.273638
0.010000,0.697611,8.653320,0.394381,1.251450,1.974515,0.090665,6.273359
0.010000,0.710323,8.653193,0.407093,1.271204,1.975439,0.092406,6.273079
0.010000,0.723232,8.653061,0.420003,1.290968,1.976381,0.094133,6.272796
0.010000,0.736339,8.652923,0.433111,1.310741,1.977339,0.095844,6.272511
0.010000,0.749643,8.652779,0.446416,1.330522,1.978087,0.074823,6.272225
0.010000,0.763145,8.652629,0.459919,1.350310,1.978828,0.074085,6.271937
0.010000,0.776846,8.652473,0.473620,1.370113,1.980245,0.141635,6.271647
0.010000,0.790744,8.652310,0.487519,1.389925,1.981271,0.102677,6.271355
0.010000,0.804840,8.652141,0.501617,1.409749,1.982315,0.104309,6.271062
0.010000,0.819135,8.651966,0.515913,1.429582,1.983374,0.105923,6.270768
0.010000,0.833628,8.651784,0.530407,1.449419,1.983618,0.024386,6.270473
0.010000,0.848320,8.651595,0.545099,1.469271,1.985241,0.162296,6.270176
0.010000,0.863210,8.651399,0.559991,1.489137,1.986585,0.134423,6.269879
0.010000,0.878298,8.651196,0.575081,1.509014,1.987708,0.112353,6.269580
0.010000,0.893586,8.650986,0.590370,1.528890,1.987655,-0.005372,6.269281
0.010000,0.909072,8.650768,0.605858,1.548788,1.989806,0.215109,6.268982
0.010000,0.924758,8.650543,0.621545,1.568700,1.991114,0.130876,6.268682
0.010000,0.940642,8.650310,0.637431,1.588611,1.991188,0.007395,6.268381
0.010000,0.956726,8.650069,0.653516,1.608542,1.993043,0.185485,6.268080
0.010000,0.973009,8.649821,0.669801,1.628489,1.994662,0.161903,6.267779
0.010000,0.989491,8.649565,0.686285,1.648431,1.994227,-0.043522,6.267478
0.010000,1.006173,8.649300,0.702969,1.668402,1.997071,0.284412,6.267178
0.010000,1.023054,8.649027,0.719853,1.688375,1.997379,0.030784,6.266877
0.010000,1.040136,8.648746,0.736937,1.708363,1.998755,0.137581,6.266577
0.010000,1.057417,8.648456,0.754221,1.728366,2.000293,0.153863,6.266277
0.010000,1.074898,8.648158,0.771704,1.748374,2.000805,0.051144,6.265978
0.010000,1.092580,8.647851,0.789388,1.768404,2.002987,0.218203,6.265680
0.010000,1.110461,8.647536,0.807273,1.788436,2.003202,0.021464,6.265383
0.010000,1.128543,8.647211,0.825358,1.808490,2.005476,0.227481,6.265087
0.010000,1.146826,8.646877,0.843643,1.828550,2.005925,0.044809,6.264792
0.010000,1.165309,8.646535,0.862129,1.848628,2.007779,0.185471,6.264498
0.010000,1.183992,8.646183,0.880817,1.868717,2.008953,0.117348,6.264206
0.010000,1.202877,8.645822,0.899705,1.888816,2.009913,0.096041,6.263916
0.010000,1.221963,8.645451,0.918794,1.908937,2.012118,0.220456,6.263627
0.010000,1.241250,8.645071,0.938085,1.929059,2.012190,0.007268,6.263340
0.010000,1.260738,8.644681,0.957577,1.949205,2.014598,0.240732,6.263056
0.010000,1.280428,8.644282,0.977270,1.969365,2.015935,0.133716,6.262773
0.010000,1.300319,8.643873,0.997166,1.989528,2.016347,0.041207,6.262493
0.010000,1.320411,8.643455,1.017263,2.009716,2.018765,0.241778,6.262216
0.010000,1.340706,8.643026,1.037562,2.029917,2.020108,0.134344,6.261941
0.010000,1.361203,8.642588,1.058063,2.050124,2.020760,0.065151,6.261669
0.010000,1.381901,8.642140,1.078767,2.070352,2.022774,0.201444,6.261400
0.010000,1.402802,8.641681,1.099673,2.090596,2.024341,0.156685,6.261134
0.010000,1.423906,8.641213,1.120781,2.110853,2.025758,0.141681,6.260872
0.010000,1.445211,8.640735,1.142092,2.131121,2.026744,0.098671,6.260613
0.010000,1.466720,8.640247,1.163606,2.151406,2.028555,0.181056,6.260357
0.010000,1.488431,8.639748,1.185324,2.171708,2.030193,0.163808,6.260106
0.010000,1.510346,8.639240,1.207244,2.192025,2.031680,0.148680,6.259858
0.010000,1.532463,8.638721,1.229367,2.212357,2.033184,0.150458,6.259615
0.010000,1.554784,8.638192,1.251694,2.232704,2.034707,0.152214,6.259376
0.010000,1.577308,8.637653,1.274225,2.253065,2.036116,0.140946,6.259141
0.010000,1.600036,8.637104,1.296959,2.273442,2.037707,0.159134,6.258911
0.010000,1.622967,8.636544,1.319898,2.293836,2.039430,0.172218,6.258686
0.010000,1.646103,8.635975,1.343040,2.314246,2.041016,0.158654,6.258466
0.010000,1.669442,8.635395,1.366387,2.334673,2.042619,0.160291,6.258251
0.010000,1.692986,8.634806,1.389938,2.355115,2.044238,0.161904,6.258042
0.010000,1.716734,8.634206,1.413694,2.375574,2.045873,0.163492,6.257838
0.010000,1.740687,8.633596,1.437654,2.396049,2.047524,0.165054,6.257639
0.010000,1.764845,8.632977,1.461820,2.416541,2.049189,0.166591,6.257447
0.010000,1.789207,8.632347,1.486190,2.437050,2.050870,0.168103,6.257260
0.010000,1.813774,8.631708,1.510766,2.457575,2.052566,0.169588,6.257080
0.010000,1.838547,8.631059,1.535547,2.478118,2.054277,0.171046,6.256907
0.010000,1.863525,8.630400,1.560534,2.498678,2.056002,0.172478,6.256740
0.010000,1.888709,8.629732,1.585727,2.519255,2.057676,0.167391,6.256580
0.010000,1.914098,8.629055,1.611125,2.539849,2.059376,0.170062,6.256427
0.010000,1.939694,8.628368,1.636730,2.560461,2.061254,0.187832,6.256281
0.010000,1.965495,8.627671,1.662541,2.581091,2.063038,0.178323,6.256142
0.010000,1.991503,8.626966,1.688558,2.601740,2.064834,0.179619,6.256011
0.010000,2.017717,8.626252,1.714782,2.622406,2.066643,0.180887,6.255888
0.010000,2.044138,8.625529,1.741213,2.643091,2.068437,0.179421,6.255773
0.010000,2.070766,8.624798,1.767851,2.663792,2.070104,0.166732,6.255666
0.010000,2.097601,8.624058,1.794696,2.684513,2.072162,0.205793,6.255568
0.010000,2.124643,8.623309,1.821749,2.705253,2.074023,0.186076,6.255478
0.010000,2.151893,8.622553,1.849009,2.726012,2.075886,0.186344,6.255397
0.010000,2.179350,8.621789,1.876477,2.746788,2.077601,0.171498,6.255325
0.010000,2.207015,8.621017,1.904152,2.767585,2.079708,0.210662,6.255262
0.010000,2.234888,8.620238,1.932036,2.788402,2.081616,0.190820,6.255209
0.010000,2.262970,8.619451,1.960129,2.809236,2.083437,0.182128,6.255165
0.010000,2.291260,8.618658,1.988430,2.830091,2.085478,0.204095,6.255131
0.010000,2.319758,8.617858,2.016939,2.850965,2.087454,0.197515,6.255107
0.010000,2.348465,8.617051,2.045658,2.871859,2.089371,0.191748,6.255094
0.010000,2.377382,8.616239,2.074586,2.892773,2.091425,0.205368,6.255091
0.010000,2.406507,8.615420,2.103723,2.913707,2.093422,0.199705,6.255099
0.010000,2.435842,8.614596,2.133069,2.934662,2.095458,0.203649,6.255117
0.010000,2.465387,8.613767,2.162626,2.955637,2.097474,0.201556,6.255147
0.010000,2.495142,8.612933,2.192392,2.976633,2.099610,0.213578,6.255189
0.010000,2.525106,8.612095,2.222369,2.997649,2.101565,0.195516,6.255242
0.010000,2.555281,8.611253,2.252555,3.018687,2.103837,0.227210,6.255306
0.010000,2.585667,8.610406,2.282953,3.039744,2.105732,0.189543,6.255383
0.010000,2.616264,8.609557,2.313561,3.060825,2.108098,0.236578,6.255473
0.010000,2.647071,8.608704,2.344380,3.081925,2.110014,0.191607,6.255574
0.010000,2.678090,8.607850,2.375411,3.103049,2.112351,0.233712,6.255689
0.010000,2.709320,8.606993,2.406653,3.124193,2.114448,0.209676,6.255817
0.010000,2.740762,8.606134,2.438106,3.145359,2.116555,0.210658,6.255958
0.010000,2.772416,8.605274,2.469772,3.166550,2.119072,0.251690,6.256112
0.010000,2.804282,8.604414,2.501649,3.187759,2.120922,0.185075,6.256280
0.010000,2.836360,8.603554,2.533739,3.208993,2.123410,0.248816,6.256462
0.010000,2.868651,8.602694,2.566042,3.230250,2.125717,0.230676,6.256659
0.010000,2.901155,8.601835,2.598557,3.251527,2.127735,0.201753,6.256870
0.010000,2.933872,8.600977,2.631285,3.272830,2.130232,0.249696,6.257095
0.010000,2.966803,8.600122,2.664227,3.294157,2.132720,0.248871,6.257336
0.010000,2.999947,8.599269,2.697382,3.315504,2.134730,0.200973,6.257592
0.010000,3.033305,8.598420,2.730751,3.336875,2.137093,0.236291,6.257863
0.010000,3.066877,8.597574,2.764334,3.358273,2.139769,0.267587,6.258151
0.010000,3.100663,8.596733,2.798130,3.379694,2.142125,0.235573,6.258454
0.010000,3.134664,8.595897,2.832142,3.401137,2.144327,0.220220,6.258774
0.010000,3.168880,8.595068,2.866368,3.422605,2.146775,0.244806,6.259110
0.010000,3.203311,8.594245,2.900809,3.444098,2.149245,0.247019,6.259463
0.010000,3.237958,8.593429,2.935465,3.465616,2.151807,0.256142,6.259833
0.010000,3.272820,8.592621,2.970337,3.487161,2.154563,0.275620,6.260221
0.010000,3.307898,8.591823,3.005424,3.508729,2.156763,0.220049,6.260626
0.010000,3.343193,8.591034,3.040727,3.530322,2.159313,0.254986,6.261049
0.010000,3.378704,8.590255,3.076247,3.551941,2.161884,0.257059,6.261490
0.010000,3.414431,8.589488,3.111982,3.573586,2.164475,0.259103,6.261950
0.010000,3.450376,8.588734,3.147935,3.595257,2.167086,0.261121,6.262429
0.010000,3.486538,8.587992,3.184105,3.616954,2.169717,0.263110,6.262926
0.010000,3.522917,8.587264,3.220491,3.638677,2.172368,0.265073,6.263444
0.010000,3.559515,8.586551,3.257096,3.660428,2.175038,0.267010,6.263980
0.010000,3.596330,8.585854,3.293918,3.682205,2.177727,0.268921,6.264537
0.010000,3.633364,8.585174,3.330958,3.704009,2.180435,0.270807,6.265114
0.010000,3.670617,8.584512,3.368216,3.725841,2.183162,0.272669,6.265711
0.010000,3.708088,8.583869,3.405693,3.747700,2.185907,0.274508,6.266330
0.010000,3.745779,8.583245,3.443389,3.769587,2.188670,0.276324,6.266969
0.010000,3.783689,8.582643,3.481304,3.791501,2.191451,0.278119,6.267630
0.010000,3.821819,8.582063,3.519438,3.813444,2.194250,0.279894,6.268313
0.010000,3.860169,8.581506,3.557793,3.835418,2.197388,0.313781,6.269017
0.010000,3.898740,8.580973,3.596367,3.857421,2.200327,0.293910,6.269745
0.010000,3.937531,8.580466,3.635161,3.879450,2.202863,0.253547,6.270494
0.010000,3.976543,8.579986,3.674176,3.901507,2.205735,0.287232,6.271267
0.010000,4.015776,8.579534,3.713412,3.923593,2.208624,0.288911,6.272064
0.010000,4.055231,8.579112,3.752869,3.945710,2.211679,0.305524,6.272883
0.010000,4.094908,8.578719,3.792548,3.967866,2.215564,0.388427,6.273727
0.010000,4.134807,8.578359,3.832448,3.990041,2.217523,0.195901,6.274596
0.010000,4.174928,8.578033,3.872571,4.012246,2.220481,0.295854,6.275488
0.010000,4.215272,8.577740,3.912916,4.034486,2.224024,0.354259,6.276406
0.010000,4.255838,8.577485,3.953483,4.056762,2.227612,0.358801,6.277350
0.010000,4.296628,8.577266,3.994274,4.079058,2.229599,0.198725,6.278318
0.010000,4.337642,8.577087,4.035288,4.101389,2.233138,0.353952,6.279313
0.010000,4.378879,8.576948,4.076526,4.123762,2.237261,0.412285,6.280335
0.010000,4.420341,8.576852,4.117987,4.146151,2.238878,0.161652,6.281383
0.010000,4.462026,8.576799,4.159673,4.168584,2.243325,0.444739,6.282458
0.010000,4.503937,8.576791,4.201583,4.191046,2.246188,0.286266,0.000375
0.010000,4.546072,8.576831,4.243719,4.213534,2.248781,0.259331,0.001505
0.010000,4.588433,8.576919,4.286079,4.236071,2.253750,0.496886,0.002664
0.010000,4.631019,8.577058,4.328666,4.258619,2.254744,0.099414,0.003851
0.010000,4.673831,8.577249,4.371478,4.281228,2.260906,0.616212,0.005066
0.010000,4.716868,8.577493,4.414516,4.303841,2.261296,0.038935,0.006312
0.010000,4.760132,8.577794,4.457781,4.326517,2.267624,0.632791,0.007586
0.010000,4.803623,8.578152,4.501273,4.349198,2.268159,0.053579,0.008891
0.010000,4.847340,8.578570,4.544993,4.371943,2.274474,0.631422,0.010226
0.010000,4.891285,8.579049,4.588940,4.394698,2.275461,0.098772,0.011592
0.010000,4.935456,8.579592,4.633115,4.417504,2.280619,0.515809,0.012989
0.010000,4.979856,8.580200,4.677518,4.440339,2.283473,0.285324,0.014417
0.010000,5.024483,8.580876,4.722150,4.463202,2.286343,0.287075,0.015877
0.010000,5.069338,8.581622,4.767011,4.486123,2.292054,0.571104,0.017370
0.010000,5.114421,8.582439,4.812102,4.509057,2.293442,0.138742,0.018895
0.010000,5.159732,8.583331,4.857422,4.532033,2.297590,0.414821,0.020454
0.010000,5.205273,8.584299,4.902973,4.555059,2.302641,0.505126,0.022046
0.010000,5.251042,8.585345,4.948754,4.578105,2.304598,0.195705,0.023671
0.010000,5.297040,8.586472,4.994766,4.601189,2.308388,0.378925,0.025331
0.010000,5.343267,8.587682,5.041009,4.624324,2.313500,0.511244,0.027026
0.010000,5.389724,8.588978,5.087484,4.647488,2.316381,0.288086,0.028756
0.010000,5.436410,8.590362,5.134191,4.670686,2.319743,0.336228,0.030521
0.010000,5.483326,8.591837,5.181130,4.693921,2.323596,0.385265,0.032323
0.010000,5.530472,8.593405,5.228302,4.717198,2.327697,0.410068,0.034160
0.010000,5.577848,8.595068,5.275707,4.740521,2.332279,0.458257,0.036034
0.010000,5.625455,8.596830,5.323346,4.763872,2.335105,0.282616,0.037946
0.010000,5.673291,8.598692,5.371219,4.787262,2.339004,0.389846,0.039895
0.010000,5.721358,8.600659,5.419326,4.810691,2.342911,0.390751,0.041882
0.010000,5.769655,8.602732,5.467667,4.834160,2.346826,0.391518,0.043908
0.010000,5.818182,8.604914,5.516244,4.857667,2.350748,0.392147,0.045972
0.010000,5.866941,8.607208,5.565056,4.881214,2.354674,0.392636,0.048076
0.010000,5.915929,8.609618,5.614104,4.904800,2.358604,0.392985,0.050219
0.010000,5.965149,8.612145,5.663388,4.928425,2.362536,0.393193,0.052403
0.010000,6.014599,8.614794,5.712909,4.952090,2.366469,0.393260,0.054627
0.010000,6.064279,8.617567,5.762667,4.975794,2.370400,0.393186,0.056892
0.010000,6.114191,8.620467,5.812662,4.999537,2.374330,0.392971,0.059199
0.010000,6.164332,8.623498,5.862896,5.023320,2.378256,0.392613,0.061547
0.010000,6.214704,8.626662,5.913367,5.047142,2.382177,0.392114,0.063938
0.010000,6.265307,8.629964,5.964077,5.071003,2.386092,0.391473,0.066372
0.010000,6.316139,8.633406,6.015026,5.094903,2.389999,0.390691,0.068848
0.010000,6.367202,8.636991,6.066215,5.118842,2.393897,0.389767,0.071368
0.010000,6.418495,8.640724,6.117643,5.142819,2.397784,0.388703,0.073933
0.010000,6.470017,8.644608,6.169311,5.166836,2.401659,0.387498,0.076541
0.010000,6.521768,8.648646,6.221220,5.190891,2.405520,0.386154,0.079195
0.010000,6.573749,8.652841,6.273370,5.214993,2.410153,0.463241,0.081893
0.010000,6.625959,8.657199,6.325761,5.239128,2.413480,0.332736,0.084638
0.010000,6.678397,8.661721,6.378394,5.263298,2.417039,0.355912,0.087429
0.010000,6.731064,8.666413,6.431269,5.287506,2.420820,0.378058,0.090266
0.010000,6.783958,8.671277,6.484387,5.311755,2.424851,0.403098,0.093150
0.010000,6.837080,8.676318,6.537747,5.336048,2.429309,0.445799,0.096081
0.010000,6.890429,8.681540,6.591351,5.360368,2.432005,0.269596,0.099061
0.010000,6.944004,8.686946,6.645198,5.384724,2.435675,0.367036,0.102088
0.010000,6.997805,8.692541,6.699289,5.409128,2.440329,0.465347,0.105164
0.010000,7.051832,8.698329,6.753625,5.433560,2.443176,0.284777,0.108289
0.010000,7.106083,8.704314,6.808205,5.458024,2.446423,0.324665,0.111463
0.010000,7.160558,8.710500,6.863031,5.482534,2.451043,0.461995,0.114688
0.010000,7.215256,8.716891,6.918101,5.507069,2.453491,0.244840,0.117962
0.010000,7.270178,8.723493,6.973418,5.531640,2.457131,0.363976,0.121287
0.010000,7.325321,8.730308,7.028980,5.556249,2.460821,0.368982,0.124662
0.010000,7.380684,8.737342,7.084789,5.580882,2.463348,0.252713,0.128089
0.010000,7.436268,8.744599,7.140845,5.605557,2.467460,0.411226,0.131567
0.010000,7.492071,8.752083,7.197147,5.630253,2.469631,0.217057,0.135098
0.010000,7.548092,8.759800,7.253697,5.654987,2.473348,0.371717,0.138680
0.010000,7.604330,8.767754,7.310494,5.679744,2.475719,0.237050,0.142315
0.010000,7.660783,8.775949,7.367540,5.704533,2.478938,0.321987,0.146003
0.010000,7.717451,8.784390,7.424833,5.729347,2.481388,0.244994,0.149744
0.010000,7.774333,8.793082,7.482375,5.754188,2.484092,0.270415,0.153539
0.010000,7.831427,8.802030,7.540166,5.779054,2.486591,0.249839,0.157387
0.010000,7.888731,8.811239,7.598205,5.803943,2.488918,0.232669,0.161289
0.010000,7.946244,8.820713,7.656494,5.828854,2.491105,0.218730,0.165245
0.010000,8.003965,8.830457,7.715032,5.853789,2.493536,0.243065,0.169256
0.010000,8.061893,8.840478,7.773819,5.878738,2.494844,0.130825,0.173321
0.010000,8.120024,8.850779,7.832856,5.903710,2.497212,0.236843,0.177442
0.010000,8.178358,8.861365,7.892143,5.928701,2.499084,0.187168,0.181617
0.010000,8.236893,8.872242,7.951680,5.953697,2.499582,0.049844,0.185847
0.010000,8.295627,8.883415,8.011467,5.978714,2.501718,0.213568,0.190133
0.010000,8.354558,8.894890,8.071505,6.003745,2.503077,0.135892,0.194475
0.010000,8.413683,8.906670,8.131792,6.028781,2.503651,0.057435,0.198871
0.010000,8.473002,8.918762,8.192331,6.053819,2.503826,0.017449,0.203324
0.010000,8.532510,8.931171,8.253119,6.078873,2.505361,0.153503,0.207832
0.010000,8.592207,8.943902,8.314159,6.103931,2.505772,0.041136,0.212396
0.010000,8.652090,8.956960,8.375448,6.128990,2.505957,0.018524,0.217016
0.010000,8.712156,8.970351,8.436989,6.154039,2.504857,-0.110015,0.221692
0.010000,8.772402,8.984080,8.498780,6.179089,2.505037,0.018025,0.226423
0.010000,8.832827,8.998152,8.560821,6.204139,2.505013,-0.002457,0.231210
0.010000,8.893426,9.012574,8.623113,6.229182,2.504254,-0.075854,0.236053
0.010000,8.954198,9.027349,8.685655,6.254214,2.503240,-0.101402,0.240951
0.010000,9.015139,9.042483,8.748447,6.279234,2.501965,-0.127508,0.245904
0.010000,9.076246,9.057983,8.811490,6.304238,2.500424,-0.154152,0.250913
0.010000,9.137517,9.073853,8.874782,6.329224,2.498611,-0.181310,0.255977
0.010000,9.198947,9.090098,8.938324,6.354189,2.496521,-0.208961,0.261095
0.010000,9.260533,9.106724,9.002115,6.379124,2.493462,-0.305917,0.266268
0.010000,9.322273,9.123737,9.066156,6.404040,2.491614,-0.184838,0.271496
0.010000,9.384161,9.141141,9.130445,6.428927,2.488728,-0.288580,0.276777
0.010000,9.446196,9.158941,9.194983,6.453783,2.485520,-0.320810,0.282112
0.010000,9.508372,9.177144,9.259769,6.478603,2.482015,-0.350435,0.287500
0.010000,9.570686,9.195754,9.324803,6.503385,2.478211,-0.380381,0.292941
0.010000,9.633135,9.214777,9.390084,6.528126,2.474105,-0.410614,0.298434
0.010000,9.695713,9.234217,9.455612,6.552821,2.469473,-0.463272,0.303979
0.010000,9.758416,9.254080,9.521387,6.577459,2.463830,-0.564283,0.309575
0.010000,9.821242,9.274371,9.587407,6.602054,2.459539,-0.429112,0.315222
0.010000,9.884184,9.295094,9.653673,6.626596,2.454167,-0.537150,0.320919
0.010000,9.947150,9.316226,9.720091,6.641757,1.516093,-93.807384,0.326658
0.010000,10.009946,9.337702,9.786458,6.636680,-0.507751,-202.384452,0.332420
0.010000,10.072451,9.359483,9.852649,6.619148,-1.753129,-124.537783,0.338193
0.010000,10.134649,9.381560,9.918649,6.599990,-1.915777,-16.264841,0.343974
0.010000,10.196537,9.403932,9.984456,6.580717,-1.927333,-1.155592,0.349763
0.010000,10.258112,9.426594,10.050069,6.561329,-1.938808,-1.147428,0.355559
0.010000,10.319372,9.449545,10.115488,6.541827,-1.950181,-1.137383,0.361359
0.010000,10.380315,9.472781,10.180710,6.522213,-1.961436,-1.125411,0.367163
0.010000,10.440938,9.496299,10.245735,6.502487,-1.972550,-1.111468,0.372969
0.010000,10.501239,9.520095,10.310561,6.482652,-1.983505,-1.095514,0.378777
0.010000,10.561216,9.544167,10.375188,6.462709,-1.994281,-1.077515,0.384584
0.010000,10.620865,9.568512,10.439615,6.442630,-2.007905,-1.362443,0.390390
0.010000,10.680186,9.593124,10.503839,6.422438,-2.019197,-1.129178,0.396194
0.010000,10.739177,9.618002,10.567861,6.402171,-2.026731,-0.753406,0.401995
0.010000,10.797835,9.643141,10.631679,6.381804,-2.036679,-0.994859,0.407790
0.010000,10.856159,9.668538,10.695292,6.361341,-2.046344,-0.966484,0.413580
0.010000,10.914146,9.694189,10.758699,6.340706,-2.063537,-1.719288,0.419363
0.010000,10.971795,9.720089,10.821899,6.319999,-2.070657,-0.712031,0.425138
0.010000,11.029105,9.746235,10.884892,6.299245,-2.075352,-0.469443,0.430903
0.010000,11.086074,9.772623,10.947675,6.278352,-2.089387,-1.403549,0.436658
0.010000,11.142699,9.799249,11.010248,6.257305,-2.104635,-1.524759,0.442402
0.010000,11.198981,9.826109,11.072611,6.236288,-2.101702,0.293343,0.448134
0.010000,11.254918,9.853197,11.134762,6.215054,-2.123432,-2.173091,0.453852
0.010000,11.310508,9.880512,11.196700,6.193799,-2.125497,-0.206490,0.459555
0.010000,11.365751,9.908047,11.258424,6.172459,-2.134029,-0.853180,0.465243
0.010000,11.420644,9.935798,11.319934,6.150963,-2.149529,-1.549939,0.470915
0.010000,11.475188,9.963762,11.381229,6.129481,-2.148267,0.126179,0.476570
0.010000,11.529381,9.991933,11.442307,6.107808,-2.167281,-1.901436,0.482206
0.010000,11.583224,10.020308,11.503168,6.086140,-2.166800,0.048135,0.487823
0.010000,11.636714,10.048882,11.563812,6.064362,-2.177823,-1.102318,0.493420
0.010000,11.689851,10.077650,11.624236,6.042459,-2.190311,-1.248816,0.498996
0.010000,11.742635,10.106608,11.684442,6.020617,-2.184199,0.611211,0.504551
0.010000,11.795065,10.135751,11.744427,5.998501,-2.211510,-2.731151,0.510083
0.010000,11.847141,10.165074,11.804192,5.976458,-2.204326,0.718494,0.515592
0.010000,11.898864,10.194574,11.863736,5.954374,-2.208381,-0.405522,0.521077
0.010000,11.950231,10.224245,11.923057,5.932094,-2.228041,-1.966051,0.526537
0.010000,12.001244,10.254083,11.982155,5.909797,-2.229728,-0.168722,0.531972
0.010000,12.051902,10.284084,12.041030,5.887497,-2.229932,-0.020390,0.537380
0.010000,12.102205,10.314242,12.099681,5.865128,-2.236897,-0.696484,0.542762
0.010000,12.152154,10.344554,12.158108,5.842692,-2.243672,-0.677464,0.548117
0.010000,12.201748,10.375013,12.216309,5.820080,-2.261138,-1.746620,0.553443
0.010000,12.250988,10.405617,12.274284,5.797535,-2.254507,0.663117,0.558741
0.010000,12.299874,10.436360,12.332033,5.774933,-2.260192,-0.568499,0.564010
0.010000,12.348407,10.467238,12.389556,5.752278,-2.265553,-0.536122,0.569250
0.010000,12.396587,10.498246,12.446852,5.729572,-2.270580,-0.502714,0.574459
0.010000,12.444414,10.529379,12.503920,5.706819,-2.275263,-0.468300,0.579637
0.010000,12.491890,10.560634,12.560760,5.684023,-2.279592,-0.432908,0.584785
0.010000,12.533090,10.588043,12.610245,4.948438,-73.558584,-7127.899192,0.589359
0.010000,12.580144,10.619692,12.666952,5.670750,72.231232,14578.981572,0.594797
0.010000,12.626720,10.651380,12.723285,5.633298,-3.745239,-7597.647039,0.600044
0.010000,12.672824,10.683097,12.779246,5.596067,-3.723022,2.221645,0.605103
0.010000,12.718467,10.714832,12.834836,5.559057,-3.701034,2.198884,0.609975
0.010000,12.763656,10.746572,12.890059,5.522269,-3.678838,2.219581,0.614663
0.010000,12.808401,10.778309,12.944916,5.485720,-3.654851,2.398652,0.619169
0.010000,12.852709,10.810032,12.999410,5.449391,-3.632937,2.191433,0.623497
0.010000,12.896591,10.841730,13.053543,5.413294,-3.609647,2.329007,0.627648
0.010000,12.940053,10.873396,13.107317,5.377431,-3.586370,2.327662,0.631625
0.010000,12.983104,10.905019,13.160735,5.341788,-3.564298,2.207214,0.635431
0.010000,13.025753,10.936592,13.213799,5.306381,-3.540697,2.360107,0.639067
0.010000,13.068008,10.968106,13.266511,5.271194,-3.518645,2.205169,0.642538
0.010000,13.109876,10.999553,13.318873,5.236232,-3.496219,2.242588,0.645844
0.010000,13.151365,11.030925,13.370888,5.201499,-3.473264,2.295506,0.648989
0.010000,13.192483,11.062215,13.422558,5.166972,-3.452775,2.048941,0.651974
0.010000,13.233237,11.093416,13.473885,5.132672,-3.429997,2.277812,0.654803
0.010000,13.273636,11.124521,13.524871,5.098585,-3.408608,2.138839,0.657477
0.010000,13.313685,11.155523,13.575518,5.064707,-3.387882,2.072676,0.659999
0.010000,13.353393,11.186417,13.625828,5.031031,-3.367565,2.031658,0.662371
0.010000,13.392766,11.217196,13.675804,4.997565,-3.346565,2.099970,0.664595
0.010000,13.431811,11.247853,13.725447,4.964299,-3.326595,1.997032,0.666674
0.010000,13.470535,11.278385,13.774759,4.931230,-3.306961,1.963389,0.668609
0.010000,13.508944,11.308784,13.823743,4.898353,-3.287672,1.928967,0.670403
0.010000,13.547045,11.339047,13.872399,4.865666,-3.268732,1.893914,0.672058
0.010000,13.584843,11.369167,13.920731,4.833164,-3.250149,1.858372,0.673576
0.010000,13.622345,11.399140,13.968739,4.800845,-3.231924,1.822472,0.674958
0.010000,13.659557,11.428962,14.016426,4.768704,-3.214061,1.786339,0.676208
0.010000,13.696485,11.458627,14.063794,4.736739,-3.196560,1.750091,0.677326
0.010000,13.733133,11.488132,14.110843,4.704945,-3.179421,1.713840,0.678314
0.010000,13.769508,11.517472,14.157576,4.673318,-3.162644,1.677692,0.679176
0.010000,13.805615,11.546644,14.203995,4.641856,-3.146227,1.641747,0.679911
0.010000,13.841459,11.575643,14.250100,4.610552,-3.130355,1.587169,0.680522
0.010000,13.877045,11.604466,14.295894,4.579408,-3.114422,1.593281,0.681011
0.010000,13.912377,11.633108,14.341379,4.548418,-3.098998,1.542452,0.681379
0.010000,13.947462,11.661568,14.386554,4.517578,-3.083968,1.502976,0.681629
0.010000,13.982303,11.689840,14.431423,4.486886,-3.069283,1.468490,0.681760
0.010000,14.016904,11.717923,14.475987,4.456338,-3.054723,1.456059,0.681777
0.010000,14.051270,11.745813,14.520246,4.425932,-3.040611,1.411165,0.681678
0.010000,14.085406,11.773506,14.564203,4.395665,-3.026680,1.393125,0.681468
0.010000,14.119315,11.801001,14.607858,4.365533,-3.013212,1.346824,0.681145
0.010000,14.153002,11.828294,14.651213,4.335537,-2.999611,1.360001,0.680714
0.010000,14.186469,11.855383,14.694270,4.305668,-2.986891,1.272041,0.680173
0.010000,14.219721,11.882265,14.737029,4.275932,-2.973595,1.329589,0.679526
0.010000,14.252762,11.908938,14.779493,4.246318,-2.961437,1.215788,0.678773
0.010000,14.285594,11.935399,14.821661,4.216831,-2.948705,1.273194,0.677916
0.010000,14.318222,11.961647,14.863536,4.187465,-2.936642,1.206367,0.676956
0.010000,14.350648,11.987678,14.905118,4.158216,-2.924901,1.174073,0.675895
0.010000,14.382876,12.013491,14.946409,4.129090,-2.912504,1.239733,0.674733
0.010000,14.414908,12.039083,14.987409,4.100077,-2.901312,1.119126,0.673472
0.010000,14.446748,12.064454,15.028121,4.071178,-2.889930,1.138229,0.672114
0.010000,14.478398,12.089601,15.068545,4.042393,-2.878519,1.141075,0.670659
0.010000,14.509861,12.114522,15.108682,4.013724,-2.866867,1.165269,0.669108
0.010000,14.541140,12.139216,15.148534,3.985161,-2.856316,1.055069,0.667464
0.010000,14.572237,12.163681,15.188101,3.956707,-2.845355,1.096047,0.665726
0.010000,14.603154,12.187916,15.227385,3.928363,-2.834499,1.085613,0.663897
0.010000,14.633894,12.211919,15.266386,3.900125,-2.823739,1.076067,0.661978
0.010000,14.664460,12.235689,15.305106,3.871994,-2.813065,1.067413,0.659968
0.010000,14.694852,12.259225,15.343546,3.843970,-2.802468,1.059656,0.657871
0.010000,14.725073,12.282524,15.381706,3.816050,-2.791940,1.052803,0.655687
0.010000,14.755126,12.305588,15.419588,3.788236,-2.781471,1.046860,0.653417
0.010000,14.785012,12.328413,15.457194,3.760525,-2.771053,1.041832,0.651061
0.010000,14.814732,12.351000,15.494523,3.732918,-2.760676,1.037725,0.648623
0.010000,14.844289,12.373347,15.531577,3.705415,-2.750330,1.034546,0.646101
0.010000,14.873685,12.395453,15.568357,3.678015,-2.740007,1.032300,0.643499
0.010000,14.902920,12.417319,15.604864,3.650718,-2.729697,1.030995,0.640816
0.010000,14.931996,12.438942,15.641100,3.623524,-2.719391,1.030636,0.638054
0.010000,14.960915,12.460323,15.677064,3.596440,-2.708433,1.095817,0.635214
0.010000,14.989677,12.481460,15.712758,3.569457,-2.698323,1.010946,0.632297
0.010000,15.018285,12.502354,15.748184,3.542574,-2.688269,1.005477,0.629304
0.010000,15.046740,12.523004,15.783342,3.515795,-2.677887,1.038172,0.626237
0.010000,15.075042,12.543410,15.818234,3.489133,-2.666151,1.173545,0.623096
0.010000,15.103193,12.563571,15.852859,3.462566,-2.656740,0.941099,0.619884
0.010000,15.131194,12.583487,15.887220,3.436104,-2.646164,1.057644,0.616600
0.010000,15.159045,12.603158,15.921318,3.409763,-2.634137,1.202668,0.613246
0.010000,15.186748,12.622584,15.955153,3.383513,-2.624975,0.916201,0.609823
0.010000,15.214304,12.641764,15.988727,3.357386,-2.612693,1.228202,0.606333
0.010000,15.241712,12.660700,16.022040,3.331358,-2.602849,0.984461,0.602777
0.010000,15.268975,12.679390,16.055095,3.305450,-2.590805,1.204345,0.599155
0.010000,15.296093,12.697836,16.087891,3.279643,-2.580684,1.012167,0.595469
0.010000,15.323066,12.716037,16.120431,3.253962,-2.568104,1.257944,0.591721
0.010000,15.349895,12.733994,16.152715,3.228381,-2.558114,0.999043,0.587911
0.010000,15.376581,12.751707,16.184744,3.202926,-2.545525,1.258881,0.584041
0.010000,15.403124,12.769176,16.216520,3.177581,-2.534416,1.110902,0.580113
0.010000,15.429524,12.786402,16.248043,3.152351,-2.523021,1.139488,0.576126
0.010000,15.455783,12.803386,16.279316,3.127246,-2.510485,1.253614,0.572083
0.010000,15.481900,12.820128,16.310338,3.102259,-2.498768,1.171734,0.567985
0.010000,15.507876,12.836628,16.341112,3.077389,-2.486996,1.177178,0.563834
0.010000,15.533712,12.852889,16.371639,3.052642,-2.474721,1.227442,0.559630
0.010000,15.559407,12.868909,16.401919,3.028018,-2.462342,1.237922,0.555375
0.010000,15.584962,12.884691,16.431954,3.003523,-2.449503,1.283958,0.551070
0.010000,15.610377,12.900234,16.461746,2.979149,-2.437383,1.211949,0.546717
0.010000,15.635652,12.915541,16.491295,2.954902,-2.424687,1.269590,0.542317
0.010000,15.660788,12.930612,16.520602,2.930784,-2.411879,1.280806,0.537871
0.010000,15.685785,12.945448,16.549670,2.906794,-2.398967,1.291173,0.533382
0.010000,15.710643,12.960050,16.578500,2.882934,-2.385953,1.301445,0.528850
0.010000,15.735362,12.974419,16.607092,2.859206,-2.372837,1.311613,0.524276
0.010000,15.759942,12.988557,16.635448,2.835610,-2.359620,1.321668,0.519662
0.010000,15.784383,13.002466,16.663569,2.812147,-2.346304,1.331604,0.515011
0.010000,15.808686,13.016145,16.691458,2.788818,-2.332890,1.341416,0.510322
0.010000,15.832850,13.029597,16.719114,2.765625,-2.319321,1.356898,0.505598
0.010000,15.856876,13.042823,16.746539,2.742566,-2.305826,1.349534,0.500840
0.010000,15.880764,13.055825,16.773736,2.719645,-2.292183,1.364270,0.496049
0.010000,15.904512,13.068603,16.800705,2.696860,-2.278421,1.376140,0.491228
0.010000,15.928123,13.081161,16.827447,2.674214,-2.264606,1.381550,0.486377
0.010000,15.951595,13.093499,16.853964,2.651705,-2.250903,1.370306,0.481498
0.010000,15.974928,13.105618,16.880257,2.629337,-2.236843,1.406020,0.476593
0.010000,15.998124,13.117521,16.906328,2.607108,-2.222889,1.395369,0.471662
0.010000,16.021180,13.129210,16.932178,2.585015,-2.209270,1.361890,0.466709
0.010000,16.044098,13.140686,16.957809,2.563068,-2.194723,1.454731,0.461733
0.010000,16.066878,13.151950,16.983222,2.541254,-2.181395,1.332756,0.456738
0.010000,16.089519,13.163005,17.008417,2.519587,-2.166708,1.468722,0.451723
0.010000,16.112021,13.173853,17.033398,2.498053,-2.153406,1.330224,0.446691
0.010000,16.134385,13.184496,17.058165,2.476667,-2.138549,1.485700,0.441644
0.010000,16.156609,13.194935,17.082719,2.455409,-2.125825,1.272335,0.436582
0.010000,16.178695,13.205172,17.107062,2.434303,-2.110597,1.522816,0.431508
0.010000,16.200641,13.215210,17.131195,2.413328,-2.097566,1.303150,0.426423
0.010000,16.222449,13.225050,17.155120,2.392490,-2.083707,1.385851,0.421327
0.010000,16.244117,13.234695,17.178838,2.371798,-2.069281,1.442624,0.416224
0.010000,16.265647,13.244147,17.202350,2.351239,-2.055868,1.341340,0.411114
0.010000,16.287036,13.253407,17.225658,2.330806,-2.043260,1.260787,0.405999
0.010000,16.308286,13.262478,17.248764,2.310520,-2.028652,1.460766,0.400880
0.010000,16.329397,13.271361,17.271667,2.290367,-2.015309,1.334290,0.395759
0.010000,16.350368,13.280060,17.294371,2.270346,-2.002082,1.322676,0.390637
0.010000,16.371199,13.288576,17.316875,2.250456,-1.988976,1.310641,0.385516
0.010000,16.391890,13.296911,17.339182,2.230696,-1.975994,1.298238,0.380397
0.010000,16.412441,13.305068,17.361293,2.211065,-1.963138,1.285523,0.375282
0.010000,16.432852,13.313049,17.383208,2.191561,-1.950413,1.272553,0.370171
0.010000,16.453122,13.320856,17.404930,2.172183,-1.937819,1.259388,0.365067
0.010000,16.473252,13.328491,17.426460,2.152929,-1.925358,1.246090,0.359970
0.010000,16.493242,13.335956,17.447798,2.133799,-1.913031,1.232721,0.354883
0.010000,16.513090,13.343255,17.468945,2.114790,-1.900837,1.219343,0.349805
0.010000,16.532798,13.350388,17.489904,2.095903,-1.888777,1.206020,0.344740
0.010000,16.552365,13.357358,17.510676,2.077134,-1.876849,1.192818,0.339687
0.010000,16.571791,13.364168,17.531261,2.058478,-1.865605,1.124435,0.334648
0.010000,16.591075,13.370819,17.551660,2.039916,-1.856184,0.942072,0.329625
0.010000,16.610218,13.377315,17.571875,2.021491,-1.842522,1.366243,0.324618
0.010000,16.629220,13.383657,17.591906,2.003179,-1.831151,1.137012,0.319629
0.010000,16.648079,13.389847,17.611756,1.984937,-1.824213,0.693814,0.314659
0.010000,16.666797,13.395888,17.631424,1.966834,-1.810326,1.388716,0.309709
0.010000,16.685372,13.401782,17.650912,1.948827,-1.800727,0.959950,0.304780
0.010000,16.703806,13.407531,17.670221,1.930899,-1.792825,0.790154,0.299874
0.010000,16.722097,13.413137,17.689352,1.913102,-1.779640,1.318479,0.294991
0.010000,16.740245,13.418604,17.708306,1.895358,-1.774367,0.527317,0.290132
0.010000,16.758250,13.423932,17.727084,1.877746,-1.761273,1.309371,0.285298
0.010000,16.776113,13.429125,17.745686,1.860200,-1.754554,0.671963,0.280491
0.010000,16.793832,13.434184,17.764113,1.842741,-1.745953,0.860081,0.275712
0.010000,16.811409,13.439111,17.782367,1.825395,-1.734602,1.135120,0.270960
0.010000,16.828841,13.443909,17.800448,1.808087,-1.730730,0.387205,0.266238
0.010000,16.846130,13.448581,17.818357,1.790881,-1.720581,1.014875,0.261546
0.010000,16.863275,13.453127,17.836094,1.773765,-1.711613,0.896801,0.256884
0.010000,16.880276,13.457551,17.853661,1.756720,-1.704520,0.709325,0.252254
0.010000,16.897133,13.461855,17.871059,1.739724,-1.699604,0.491556,0.247657
0.010000,16.913845,13.466040,17.888287,1.722804,-1.691965,0.763916,0.243093
0.010000,16.930412,13.470109,17.905346,1.705965,-1.683992,0.797300,0.238563
0.010000,16.946834,13.474063,17.922238,1.689187,-1.677712,0.628018,0.234067
0.010000,16.963112,13.477906,17.938963,1.672471,-1.671624,0.608803,0.229607
0.010000,16.979244,13.481639,17.955521,1.655814,-1.665719,0.590507,0.225183
0.010000,16.995230,13.485264,17.971913,1.639214,-1.659987,0.573166,0.220796
0.010000,17.011070,13.488783,17.988140,1.622670,-1.654419,0.556810,0.216446
0.010000,17.026765,13.492199,18.004202,1.606180,-1.649004,0.541470,0.212133
0.010000,17.042313,13.495513,18.020099,1.589743,-1.643733,0.527172,0.207859
0.010000,17.057715,13.498727,18.035833,1.573357,-1.638593,0.513939,0.203624
0.010000,17.072969,13.501844,18.051402,1.556974,-1.638240,0.035347,0.199428
0.010000,17.088077,13.504865,18.066809,1.540676,-1.629825,0.841485,0.195272
0.010000,17.103038,13.507792,18.082053,1.524427,-1.624934,0.489081,0.191157
0.010000,17.117851,13.510627,18.097136,1.508224,-1.620263,0.467146,0.187082
0.010000,17.132516,13.513373,18.112056,1.491996,-1.622824,-0.256162,0.183048
0.010000,17.147033,13.516030,18.126814,1.475857,-1.613840,0.898385,0.179056
0.010000,17.161403,13.518602,18.141412,1.459778,-1.607927,0.591296,0.175106
0.010000,17.175623,13.521089,18.155848,1.443625,-1.615286,-0.735867,0.171198
0.010000,17.189696,13.523494,18.170124,1.427619,-1.600671,1.461518,0.167332
0.010000,17.203618,13.525818,18.184240,1.411557,-1.606162,-0.549093,0.163510
0.010000,17.217392,13.528064,18.198196,1.395581,-1.597589,0.857335,0.159730
0.010000,17.231017,13.530233,18.211992,1.379571,-1.601006,-0.341701,0.155994
0.010000,17.244491,13.532326,18.225628,1.363660,-1.591122,0.988375,0.152302
0.010000,17.257816,13.534347,18.239105,1.347659,-1.600047,-0.892534,0.148653
0.010000,17.270990,13.536295,18.252423,1.331786,-1.587331,1.271640,0.145049
0.010000,17.284014,13.538174,18.265581,1.315880,-1.590588,-0.325737,0.141488
0.010000,17.296887,13.539985,18.278581,1.299965,-1.591507,-0.091889,0.137973
0.010000,17.309609,13.541729,18.291422,1.284121,-1.584395,0.711227,0.134502
0.010000,17.322181,13.543408,18.304105,1.268283,-1.583833,0.056158,0.131075
0.010000,17.334600,13.545024,18.316629,1.252402,-1.588084,-0.425107,0.127694
0.010000,17.346867,13.546578,18.328995,1.236560,-1.584219,0.386508,0.124357
0.010000,17.358983,13.548072,18.341202,1.220743,-1.581623,0.259601,0.121066
0.010000,17.370947,13.549508,18.353251,1.204931,-1.581267,0.035604,0.117820
0.010000,17.382758,13.550887,18.365143,1.189121,-1.580946,0.032116,0.114619
0.010000,17.394416,13.552210,18.376876,1.173315,-1.580650,0.029579,0.111463
0.010000,17.405921,13.553480,18.388451,1.157511,-1.580370,0.027979,0.108353
0.010000,17.417273,13.554697,18.399868,1.141710,-1.580097,0.027301,0.105288
0.010000,17.428472,13.555864,18.411127,1.125912,-1.579822,0.027530,0.102268
0.010000,17.439516,13.556981,18.422228,1.110117,-1.579536,0.028648,0.099294
0.010000,17.450407,13.558049,18.433172,1.094324,-1.579229,0.030638,0.096365
0.010000,17.461144,13.559072,18.443957,1.078535,-1.578894,0.033483,0.093482
0.010000,17.471727,13.560049,18.454584,1.062750,-1.578523,0.037162,0.090644
0.010000,17.482155,13.560982,18.465054,1.046969,-1.578106,0.041656,0.087852
0.010000,17.492427,13.561872,18.475365,1.031121,-1.584808,-0.670175,0.085105
0.010000,17.502545,13.562722,18.485519,1.015322,-1.579856,0.495226,0.082403
0.010000,17.512508,13.563531,18.495514,0.999544,-1.577888,0.196778,0.079747
0.010000,17.522315,13.564302,18.505352,0.983763,-1.578072,-0.018414,0.077136
0.010000,17.531966,13.565036,18.515030,0.967869,-1.589402,-1.133044,0.074570
0.010000,17.541461,13.565733,18.524551,0.952097,-1.577174,1.222808,0.072049
0.010000,17.550801,13.566395,18.533914,0.936283,-1.581373,-0.419908,0.069574
0.010000,17.559983,13.567024,18.543118,0.920404,-1.587981,-0.660732,0.067143
0.010000,17.569010,13.567620,18.552165,0.904644,-1.575992,1.198846,0.064758
0.010000,17.577879,13.568185,18.561052,0.888696,-1.594806,-1.881344,0.062417
0.010000,17.586592,13.568719,18.569781,0.872945,-1.575052,1.975378,0.060121
0.010000,17.595147,13.569225,18.578351,0.856979,-1.596580,-2.152843,0.057870
0.010000,17.603545,13.569702,18.586763,0.841192,-1.578694,1.788661,0.055663
0.010000,17.611786,13.570152,18.595015,0.825262,-1.593067,-1.437351,0.053501
0.010000,17.619868,13.570577,18.603109,0.809391,-1.587060,0.600744,0.051384
0.010000,17.627794,13.570976,18.611045,0.793549,-1.584189,0.287075,0.049310
0.010000,17.635560,13.571351,18.618820,0.777549,-1.599984,-1.579459,0.047281
0.010000,17.643169,13.571704,18.626437,0.761676,-1.587373,1.261084,0.045296
0.010000,17.650619,13.572034,18.633895,0.745784,-1.589170,-0.179737,0.043355
0.010000,17.657911,13.572344,18.641193,0.729837,-1.594735,-0.556447,0.041458
0.010000,17.665044,13.572633,18.648332,0.713854,-1.598228,-0.349355,0.039605
0.010000,17.672018,13.572903,18.655311,0.697921,-1.593362,0.486661,0.037795
0.010000,17.678833,13.573154,18.662131,0.681971,-1.594964,-0.160247,0.036030
0.010000,17.685489,13.573389,18.668791,0.666006,-1.596472,-0.150820,0.034307
0.010000,17.691985,13.573606,18.675291,0.650027,-1.597882,-0.140977,0.032628
0.010000,17.698323,13.573808,18.681631,0.634036,-1.599189,-0.130735,0.030992
0.010000,17.704500,13.573994,18.687812,0.618032,-1.600391,-0.120108,0.029400
0.010000,17.710518,13.574167,18.693832,0.602017,-1.601482,-0.109114,0.027851
0.010000,17.716376,13.574325,18.699692,0.585992,-1.602459,-0.097767,0.026344
0.010000,17.722073,13.574471,18.705391,0.569959,-1.603320,-0.086083,0.024881
0.010000,17.727611,13.574605,18.710930,0.553918,-1.604061,-0.074078,0.023460
0.010000,17.732988,13.574728,18.716309,0.537872,-1.604679,-0.061766,0.022082
0.010000,17.738205,13.574840,18.721527,0.521820,-1.605170,-0.049163,0.020746
0.010000,17.743262,13.574941,18.726585,0.505765,-1.605533,-0.036285,0.019453
0.010000,17.748158,13.575033,18.731482,0.489707,-1.605765,-0.023146,0.018202
0.010000,17.752894,13.575117,18.736218,0.473623,-1.608380,-0.261508,0.016994
0.010000,17.757468,13.575192,18.740793,0.457472,-1.615105,-0.672552,0.015828
0.010000,17.761881,13.575259,18.745207,0.441401,-1.607074,0.803129,0.014704
0.010000,17.766134,13.575319,18.749460,0.425334,-1.606770,0.030436,0.013622
0.010000,17.770225,13.575373,18.753552,0.409180,-1.615411,-0.864190,0.012581
0.010000,17.774156,13.575420,18.757483,0.393040,-1.613976,0.143575,0.011583
0.010000,17.777925,13.575462,18.761252,0.376975,-1.606469,0.750637,0.010626
0.010000,17.781533,13.575499,18.764860,0.360761,-1.621425,-1.495557,0.009712
0.010000,17.784979,13.575531,18.768307,0.344658,-1.610282,1.114285,0.008838
0.010000,17.788264,13.575559,18.771592,0.328504,-1.615405,-0.512312,0.008007
0.010000,17.791387,13.575582,18.774715,0.312330,-1.617403,-0.199761,0.007216
0.010000,17.794349,13.575603,18.777677,0.296188,-1.614145,0.325823,0.006467
0.010000,17.797149,13.575620,18.780477,0.280002,-1.618666,-0.452181,0.005760
0.010000,17.799787,13.575634,18.783115,0.263825,-1.617692,0.097450,0.005094
0.010000,17.802264,13.575646,18.785592,0.247685,-1.614002,0.368995,0.004469
0.010000,17.804578,13.575656,18.787906,0.231424,-1.626094,-1.209218,0.003885
0.010000,17.806731,13.575663,18.790059,0.215302,-1.612215,1.387877,0.003342
0.010000,17.808722,13.575670,18.792050,0.199085,-1.621654,-0.943865,0.002840
0.010000,17.810550,13.575674,18.793879,0.182852,-1.623311,-0.165695,0.002380
0.010000,17.812217,13.575678,18.795545,0.166692,-1.616013,0.729766,0.001960
0.010000,17.813723,13.575681,18.797051,0.150518,-1.617451,-0.143778,0.001581
0.010000,17.815065,13.575683,18.798393,0.134234,-1.628396,-1.094521,0.001243
0.010000,17.816245,13.575684,18.799573,0.118033,-1.620074,0.832243,0.000946
0.010000,17.817264,13.575685,18.800592,0.101837,-1.619597,0.047715,0.000690
0.010000,17.818120,13.575685,18.801448,0.085632,-1.620481,-0.088394,0.000475
0.010000,17.818814,13.575685,18.802142,0.069420,-1.621225,-0.074421,0.000300
0.010000,17.819346,13.575686,18.802674,0.053202,-1.621829,-0.060393,0.000167
0.010000,17.819716,13.575686,18.803044,0.036979,-1.622292,-0.046321,0.000074
0.010000,17.819923,13.575686,18.803251,0.020752,-1.622614,-0.032215,0.000022
0.010000,17.819998,13.575686,18.803326,0.007450,-1.330195,29.241909,0.000003
0.010000,17.820009,13.575686,18.803337,0.001131,-0.631936,69.825878,0.000000
0.010000,17.820009,13.575686,18.803337,0.000000,-0.113114,51.882257,0.000000
