dt,x,y,position,velocity,acceleration,jerk,heading
0.020000,0.303248,10.485328,0.000400,0.040000,2.000000,100.000000,0.000314
0.020000,0.303278,10.485328,0.000430,0.001493,-1.925369,-196.268469,0.000281
0.020000,0.303328,10.485328,0.000480,0.002486,0.049657,98.751332,0.000227
0.020000,0.303397,10.485328,0.000549,0.003476,0.049513,-0.007236,0.000151
0.020000,0.303486,10.485328,0.000638,0.004462,0.049310,-0.010129,0.000054
0.020000,0.306017,10.485328,0.003169,0.126522,6.102968,302.682925,6.283120
0.020000,0.311345,10.485327,0.008497,0.266417,6.994753,44.589245,6.282980
0.020000,0.317493,10.485325,0.014645,0.307386,2.048483,-247.313494,6.282818
0.020000,0.324460,10.485322,0.021612,0.348341,2.047756,-0.036355,6.282636
0.020000,0.332246,10.485317,0.029397,0.389291,2.047469,-0.014391,6.282433
0.020000,0.340850,10.485310,0.038002,0.430231,2.047009,-0.022968,6.282209
0.020000,0.350273,10.485299,0.047425,0.471151,2.046024,-0.049272,6.281965
0.020000,0.360514,10.485285,0.057666,0.512064,2.045610,-0.020680,6.281702
0.020000,0.371574,10.485267,0.068726,0.552962,2.044893,-0.035841,6.281418
0.020000,0.383451,10.485245,0.080602,0.593843,2.044079,-0.040712,6.281116
0.020000,0.396145,10.485216,0.093297,0.634708,2.043227,-0.042593,6.280794
0.020000,0.409656,10.485182,0.106808,0.675554,2.042337,-0.044488,6.280454
0.020000,0.423983,10.485140,0.121135,0.716383,2.041410,-0.046399,6.280096
0.020000,0.439127,10.485090,0.136279,0.757190,2.040368,-0.052073,6.279721
0.020000,0.455086,10.485032,0.152239,0.797972,2.039081,-0.064361,6.279328
0.020000,0.471861,10.484964,0.169013,0.838738,2.038302,-0.038964,6.278918
0.020000,0.489450,10.484885,0.186603,0.879478,2.036997,-0.065249,6.278492
0.020000,0.507854,10.484794,0.205007,0.920190,2.035612,-0.069224,6.278051
0.020000,0.527071,10.484691,0.224224,0.960880,2.034528,-0.054205,6.277595
0.020000,0.547102,10.484575,0.244255,1.001542,2.033077,-0.072565,6.277124
0.020000,0.567945,10.484443,0.265099,1.042173,2.031537,-0.076991,6.276639
0.020000,0.589600,10.484296,0.286754,1.082779,2.030300,-0.061836,6.276141
0.020000,0.612066,10.484132,0.309221,1.123353,2.028712,-0.079384,6.275631
0.020000,0.635343,10.483950,0.332499,1.163895,2.027089,-0.081160,6.275109
0.020000,0.659431,10.483749,0.356587,1.204403,2.025430,-0.082966,6.274575
0.020000,0.684327,10.483528,0.381485,1.244878,2.023734,-0.084805,6.274031
0.020000,0.710032,10.483286,0.407191,1.285318,2.022000,-0.086681,6.273478
0.020000,0.736546,10.483021,0.433706,1.325723,2.020228,-0.088597,6.272916
0.020000,0.763866,10.482732,0.461027,1.366091,2.018417,-0.090556,6.272345
0.020000,0.791993,10.482419,0.489156,1.406422,2.016566,-0.092562,6.271768
0.020000,0.820925,10.482081,0.518090,1.446710,2.014384,-0.109104,6.271184
0.020000,0.850662,10.481715,0.547829,1.486960,2.012509,-0.093746,6.270595
0.020000,0.881203,10.481321,0.578373,1.527170,2.010495,-0.100714,6.270001
0.020000,0.912546,10.480899,0.609719,1.567334,2.008217,-0.113875,6.269403
0.020000,0.944692,10.480446,0.641868,1.607457,2.006131,-0.104291,6.268803
0.020000,0.977640,10.479962,0.674819,1.647537,2.004007,-0.106231,6.268201
0.020000,1.011387,10.479446,0.708571,1.687566,2.001463,-0.127168,6.267599
0.020000,1.045934,10.478897,0.743122,1.727552,1.999267,-0.109805,6.266997
0.020000,1.081279,10.478314,0.778471,1.767490,1.996911,-0.117839,6.266396
0.020000,1.117421,10.477696,0.814619,1.807379,1.994444,-0.123337,6.265797
0.020000,1.154360,10.477043,0.851563,1.847218,1.991939,-0.125220,6.265202
0.020000,1.192093,10.476353,0.889303,1.887005,1.989396,-0.127180,6.264612
0.020000,1.230621,10.475626,0.927838,1.926742,1.986811,-0.129224,6.264028
0.020000,1.269942,10.474861,0.967167,1.966425,1.984146,-0.133281,6.263450
0.020000,1.310055,10.474058,1.007288,2.006050,1.981289,-0.142848,6.262881
0.020000,1.350959,10.473216,1.048200,2.045625,1.978753,-0.126792,6.262320
0.020000,1.392653,10.472334,1.089903,2.085143,1.975887,-0.143303,6.261771
0.020000,1.435135,10.471413,1.132395,2.124601,1.972892,-0.149740,6.261233
0.020000,1.478404,10.470452,1.175675,2.164004,1.970153,-0.136974,6.260709
0.020000,1.522460,10.469450,1.219742,2.203345,1.967058,-0.154747,6.260198
0.020000,1.567300,10.468408,1.264595,2.242626,1.964042,-0.150778,6.259704
0.020000,1.612924,10.467325,1.310232,2.281847,1.961048,-0.149723,6.259226
0.020000,1.659331,10.466202,1.356652,2.321005,1.957878,-0.158460,6.258767
0.020000,1.706518,10.465039,1.403854,2.360098,1.954656,-0.161141,6.258328
0.020000,1.754486,10.463837,1.451836,2.399126,1.951413,-0.162136,6.257910
0.020000,1.803232,10.462595,1.500598,2.438089,1.948163,-0.162471,6.257514
0.020000,1.852755,10.461314,1.550138,2.476985,1.944793,-0.168527,6.257143
0.020000,1.903054,10.459995,1.600454,2.515812,1.941372,-0.171054,6.256797
0.020000,1.954127,10.458638,1.651545,2.554571,1.937950,-0.171112,6.256479
0.020000,2.005974,10.457246,1.703410,2.593260,1.934449,-0.175047,6.256189
0.020000,2.058592,10.455818,1.756048,2.631878,1.930867,-0.179072,6.255929
0.020000,2.111980,10.454356,1.809456,2.670421,1.927177,-0.184515,6.255702
0.020000,2.166138,10.452862,1.863634,2.708893,1.923592,-0.179251,6.255507
0.020000,2.221062,10.451337,1.918580,2.747288,1.919747,-0.192240,6.255348
0.020000,2.276753,10.449782,1.974292,2.785609,1.916023,-0.186188,6.255225
0.020000,2.333208,10.448201,2.030769,2.823851,1.912117,-0.195301,6.255141
0.020000,2.390425,10.446594,2.088010,2.862015,1.908203,-0.195722,6.255097
0.020000,2.448404,10.444965,2.146012,2.900099,1.904221,-0.199093,6.255095
0.020000,2.507143,10.443316,2.204774,2.938103,1.900166,-0.202730,6.255137
0.020000,2.566640,10.441649,2.264294,2.976024,1.896053,-0.205651,6.255223
0.020000,2.626495,10.439979,2.324172,2.993909,0.894258,-50.089763,6.255357
0.020000,2.686309,10.438319,2.384009,2.991813,-0.104782,-49.952024,6.255536
0.020000,2.746080,10.436672,2.443803,2.989717,-0.104816,-0.001686,6.255760
0.020000,2.805810,10.435042,2.503555,2.987620,-0.104858,-0.002113,6.256031
0.020000,2.865499,10.433430,2.563266,2.985522,-0.104909,-0.002538,6.256347
0.020000,2.925146,10.431839,2.622934,2.983422,-0.104968,-0.002961,6.256710
0.020000,2.984752,10.430272,2.682561,2.981322,-0.105036,-0.003381,6.257118
0.020000,3.044317,10.428733,2.742145,2.979219,-0.105112,-0.003797,6.257572
0.020000,3.103840,10.427222,2.801687,2.977115,-0.105196,-0.004209,6.258072
0.020000,3.163322,10.425744,2.861187,2.975010,-0.105288,-0.004617,6.258619
0.020000,3.222762,10.424301,2.920646,2.972902,-0.105389,-0.005020,6.259211
0.020000,3.282161,10.422896,2.980061,2.970792,-0.105497,-0.005418,6.259849
0.020000,3.341519,10.421530,3.039435,2.968680,-0.105613,-0.005811,6.260534
0.020000,3.400836,10.420208,3.098766,2.966565,-0.105737,-0.006197,6.261265
0.020000,3.460111,10.418931,3.158055,2.964448,-0.105869,-0.006576,6.262042
0.020000,3.519345,10.417703,3.217302,2.962327,-0.106008,-0.006948,6.262865
0.020000,3.578537,10.416525,3.276506,2.960204,-0.106154,-0.007313,6.263735
0.020000,3.637688,10.415402,3.335667,2.958078,-0.106307,-0.007669,6.264652
0.020000,3.696797,10.414334,3.394786,2.955949,-0.106468,-0.008017,6.265614
0.020000,3.755865,10.413326,3.453863,2.953816,-0.106635,-0.008355,6.266624
0.020000,3.814891,10.412379,3.512896,2.951680,-0.106809,-0.008684,6.267680
0.020000,3.873875,10.411497,3.571887,2.949540,-0.106989,-0.009002,6.268783
0.020000,3.932818,10.410681,3.630835,2.947397,-0.107175,-0.009310,6.269933
0.020000,3.991718,10.409936,3.689740,2.945249,-0.107367,-0.009606,6.271130
0.020000,4.050576,10.409263,3.748602,2.943098,-0.107565,-0.009890,6.272373
0.020000,4.109392,10.408664,3.807421,2.940943,-0.107768,-0.010161,6.273664
0.020000,4.168165,10.408144,3.866196,2.938783,-0.107976,-0.010419,6.275002
0.020000,4.226896,10.407704,3.924929,2.936619,-0.108190,-0.010663,6.276388
0.020000,4.285584,10.407347,3.983618,2.934451,-0.108407,-0.010893,6.277820
0.020000,4.344229,10.407075,4.042263,2.932279,-0.108630,-0.011107,6.279301
0.020000,4.402830,10.406892,4.100865,2.930101,-0.108856,-0.011305,6.280828
0.020000,4.461389,10.406800,4.159424,2.927920,-0.109085,-0.011487,6.282404
0.020000,4.519903,10.406801,4.217939,2.925733,-0.109318,-0.011651,0.000842
0.020000,4.578374,10.406899,4.276409,2.923542,-0.109554,-0.011798,0.002513
0.020000,4.636801,10.407096,4.334836,2.921346,-0.109793,-0.011925,0.004232
0.020000,4.695183,10.407395,4.393219,2.919146,-0.110034,-0.012033,0.006000
0.020000,4.753520,10.407797,4.451558,2.916940,-0.110276,-0.012121,0.007815
0.020000,4.811813,10.408307,4.509853,2.914730,-0.110520,-0.012188,0.009679
0.020000,4.870060,10.408926,4.568103,2.912515,-0.110764,-0.012233,0.011591
0.020000,4.928261,10.409658,4.626309,2.910294,-0.111010,-0.012255,0.013552
0.020000,4.986416,10.410504,4.684470,2.908069,-0.111255,-0.012253,0.015561
0.020000,5.044525,10.411468,4.742587,2.905839,-0.111499,-0.012227,0.017620
0.020000,5.102587,10.412552,4.800659,2.903604,-0.111743,-0.012176,0.019727
0.020000,5.160602,10.413759,4.858686,2.901365,-0.111985,-0.012099,0.021883
0.020000,5.218569,10.415091,4.916669,2.899120,-0.112225,-0.011995,0.024088
0.020000,5.276488,10.416552,4.974606,2.896871,-0.112462,-0.011862,0.026342
0.020000,5.334358,10.418143,5.032499,2.894617,-0.112696,-0.011702,0.028645
0.020000,5.392180,10.419868,5.090346,2.892359,-0.112926,-0.011511,0.030998
0.020000,5.449952,10.421728,5.148148,2.890096,-0.113152,-0.011290,0.033400
0.020000,5.507674,10.423727,5.205904,2.887828,-0.113373,-0.011037,0.035852
0.020000,5.565345,10.425868,5.263615,2.885556,-0.113588,-0.010751,0.038354
0.020000,5.622965,10.428152,5.321281,2.883280,-0.113796,-0.010433,0.040905
0.020000,5.680534,10.430583,5.378901,2.881000,-0.113998,-0.010080,0.043506
0.020000,5.738051,10.433163,5.436475,2.878717,-0.114192,-0.009691,0.046157
0.020000,5.795514,10.435895,5.494004,2.876429,-0.114377,-0.009267,0.048858
0.020000,5.852925,10.438781,5.551487,2.874138,-0.114553,-0.008805,0.051609
0.020000,5.910281,10.441824,5.608923,2.871844,-0.114719,-0.008305,0.054410
0.020000,5.967582,10.445027,5.666314,2.869546,-0.114875,-0.007766,0.057262
0.020000,6.024828,10.448391,5.723659,2.867246,-0.115018,-0.007187,0.060163
0.020000,6.082019,10.451921,5.780958,2.864943,-0.115150,-0.006568,0.063115
0.020000,6.139152,10.455617,5.838211,2.862637,-0.115268,-0.005907,0.066118
0.020000,6.196228,10.459484,5.895418,2.860330,-0.115372,-0.005203,0.069171
0.020000,6.253245,10.463523,5.952578,2.858021,-0.115461,-0.004456,0.072274
0.020000,6.310204,10.467737,6.009692,2.855711,-0.115500,-0.001936,0.075428
0.020000,6.367102,10.472128,6.066760,2.853400,-0.115559,-0.002947,0.078632
0.020000,6.423941,10.476699,6.123782,2.851087,-0.115633,-0.003704,0.081887
0.020000,6.480717,10.481453,6.180757,2.848774,-0.115654,-0.001050,0.085192
0.020000,6.537432,10.486392,6.237687,2.846461,-0.115655,-0.000077,0.088548
0.020000,6.594084,10.491519,6.294570,2.844148,-0.115636,0.000944,0.091955
0.020000,6.650671,10.496835,6.351406,2.841836,-0.115596,0.002014,0.095412
0.020000,6.707194,10.502345,6.408197,2.839525,-0.115533,0.003132,0.098920
0.020000,6.763651,10.508049,6.464941,2.837217,-0.115447,0.004299,0.102478
0.020000,6.820041,10.513950,6.521639,2.834910,-0.115337,0.005515,0.106086
0.020000,6.876363,10.520052,6.578291,2.832606,-0.115202,0.006782,0.109745
0.020000,6.932617,10.526356,6.634897,2.830305,-0.115040,0.008098,0.113454
0.020000,6.988802,10.532864,6.691458,2.828008,-0.114850,0.009464,0.117214
0.020000,7.044916,10.539580,6.747972,2.825715,-0.114633,0.010881,0.121023
0.020000,7.100958,10.546505,6.804441,2.823428,-0.114386,0.012348,0.124883
0.020000,7.156928,10.553642,6.860863,2.821145,-0.114108,0.013865,0.128792
0.020000,7.212824,10.560994,6.917241,2.818869,-0.113800,0.015432,0.132751
0.020000,7.268645,10.568562,6.973573,2.816601,-0.113445,0.017736,0.136760
0.020000,7.324391,10.576348,7.029860,2.814339,-0.113088,0.017829,0.140818
0.020000,7.380059,10.584356,7.086101,2.812085,-0.112688,0.020034,0.144925
0.020000,7.435650,10.592587,7.142298,2.809840,-0.112245,0.022158,0.149082
0.020000,7.491162,10.601044,7.198450,2.807605,-0.111765,0.023969,0.153287
0.020000,7.546593,10.609729,7.254558,2.805380,-0.111249,0.025827,0.157541
0.020000,7.601943,10.618643,7.310621,2.803166,-0.110694,0.027730,0.161843
0.020000,7.657211,10.627790,7.366640,2.800964,-0.110101,0.029677,0.166194
0.020000,7.712394,10.637171,7.422616,2.798775,-0.109467,0.031668,0.170592
0.020000,7.767493,10.646789,7.478548,2.796599,-0.108793,0.033701,0.175038
0.020000,7.822506,10.656645,7.534437,2.794437,-0.108078,0.035774,0.179531
0.020000,7.877432,10.666742,7.590282,2.792291,-0.107320,0.037886,0.184071
0.020000,7.932269,10.677081,7.646086,2.790160,-0.106519,0.040035,0.188658
0.020000,7.987016,10.687665,7.701847,2.788047,-0.105675,0.042219,0.193290
0.020000,8.041672,10.698496,7.757566,2.785951,-0.104786,0.044436,0.197969
0.020000,8.096236,10.709575,7.813243,2.783874,-0.103865,0.046049,0.202693
0.020000,8.150707,10.720905,7.868879,2.781815,-0.102949,0.045807,0.207462
0.020000,8.205082,10.732487,7.924475,2.779778,-0.101862,0.054347,0.212276
0.020000,8.259362,10.744323,7.980030,2.777762,-0.100790,0.053597,0.217133
0.020000,8.313544,10.756416,8.035546,2.775768,-0.099671,0.055947,0.222034
0.020000,8.367628,10.768766,8.091021,2.773798,-0.098505,0.058316,0.226978
0.020000,8.421612,10.781375,8.146459,2.771852,-0.097291,0.060699,0.231965
0.020000,8.475495,10.794246,8.201857,2.769932,-0.096029,0.063095,0.236994
0.020000,8.529275,10.807380,8.257218,2.768038,-0.094719,0.065499,0.242064
0.020000,8.582951,10.820779,8.312541,2.766170,-0.093361,0.067908,0.247175
0.020000,8.636523,10.834443,8.367828,2.764331,-0.091954,0.070320,0.252326
0.020000,8.689988,10.848375,8.423078,2.762521,-0.090500,0.072729,0.257517
0.020000,8.743345,10.862577,8.478293,2.760741,-0.088997,0.075134,0.262747
0.020000,8.796593,10.877049,8.533473,2.758992,-0.087447,0.077530,0.268014
0.020000,8.849731,10.891793,8.588619,2.757275,-0.085848,0.079914,0.273320
0.020000,8.902757,10.906811,8.643730,2.755591,-0.084203,0.082281,0.278662
0.020000,8.955671,10.922104,8.698809,2.753941,-0.082510,0.084628,0.284040
0.020000,9.008469,10.937673,8.753856,2.752326,-0.080771,0.086952,0.289454
0.020000,9.061153,10.953519,8.808871,2.750746,-0.078986,0.089248,0.294902
0.020000,9.113719,10.969644,8.863855,2.749203,-0.077156,0.091513,0.300384
0.020000,9.166168,10.986049,8.918809,2.747697,-0.075281,0.093743,0.305898
0.020000,9.218496,11.002734,8.973733,2.746230,-0.073362,0.095934,0.311445
0.020000,9.270704,11.019702,9.028629,2.744802,-0.071401,0.098083,0.317023
0.020000,9.322790,11.036952,9.083498,2.743414,-0.069397,0.100187,0.322631
0.020000,9.374753,11.054487,9.138339,2.742067,-0.067352,0.102240,0.328269
0.020000,9.426591,11.072306,9.193154,2.740762,-0.065267,0.104241,0.333936
0.020000,9.478303,11.090412,9.247944,2.739499,-0.063144,0.106186,0.339629
0.020000,9.529888,11.108804,9.302710,2.738279,-0.060982,0.108072,0.345350
0.020000,9.581344,11.127483,9.357452,2.737103,-0.058784,0.109896,0.351096
0.020000,9.632671,11.146451,9.412171,2.735972,-0.056551,0.111656,0.356867
0.020000,9.683867,11.165707,9.466869,2.734887,-0.054284,0.113347,0.362662
0.020000,9.734931,11.185253,9.521546,2.733847,-0.051985,0.114969,0.368479
0.020000,9.785862,11.205089,9.576203,2.732854,-0.049654,0.116519,0.374319
0.020000,9.836658,11.225216,9.630841,2.731908,-0.047294,0.117995,0.380178
0.020000,9.887318,11.245633,9.685461,2.731010,-0.044907,0.119395,0.386058
0.020000,9.937842,11.266343,9.740065,2.730160,-0.042492,0.120719,0.391956
0.020000,9.988228,11.287344,9.794652,2.729359,-0.040053,0.121963,0.397872
0.020000,10.038474,11.308637,9.849224,2.728607,-0.037590,0.123129,0.403804
0.020000,10.088580,11.330223,9.903782,2.727896,-0.035566,0.101241,0.409751
0.020000,10.138545,11.352102,9.958326,2.727233,-0.033154,0.120552,0.415713
0.020000,10.188367,11.374273,10.012859,2.726629,-0.030214,0.147034,0.421688
0.020000,10.238045,11.396738,10.067380,2.726075,-0.027684,0.126509,0.427675
0.020000,10.287579,11.419495,10.121892,2.725572,-0.025138,0.127255,0.433674
0.020000,10.336967,11.442546,10.176394,2.725121,-0.022580,0.127923,0.439682
0.020000,10.386208,11.465890,10.230889,2.724720,-0.020010,0.128513,0.445699
0.020000,10.435302,11.489527,10.285376,2.724372,-0.017429,0.129026,0.451724
0.020000,10.484246,11.513456,10.339857,2.724042,-0.016470,0.047947,0.457755
0.020000,10.533040,11.537678,10.394333,2.723789,-0.012687,0.189163,0.463792
0.020000,10.581684,11.562193,10.448805,2.723591,-0.009859,0.141411,0.469834
0.020000,10.630176,11.587000,10.503274,2.723446,-0.007264,0.129728,0.475879
0.020000,10.678516,11.612099,10.557741,2.723353,-0.004667,0.129872,0.481926
0.020000,10.726701,11.637489,10.612206,2.723280,-0.003641,0.051309,0.487974
0.020000,10.774732,11.663169,10.666671,2.723263,-0.000862,0.138926,0.494023
0.020000,10.822608,11.689141,10.721138,2.723320,0.002851,0.185638,0.500070
0.020000,10.870328,11.715402,10.775606,2.723428,0.005434,0.129151,0.506116
0.020000,10.917890,11.741953,10.830078,2.723564,0.006781,0.067380,0.512158
0.020000,10.965294,11.768792,10.884552,2.723724,0.007988,0.060335,0.518196
0.020000,11.012540,11.795919,10.939032,2.723980,0.012826,0.241922,0.524230
0.020000,11.059626,11.823333,10.993518,2.724288,0.015377,0.127543,0.530256
0.020000,11.106551,11.851034,11.048009,2.724578,0.014488,-0.044448,0.536276
0.020000,11.153316,11.879021,11.102508,2.724957,0.018976,0.224408,0.542288
0.020000,11.199919,11.907292,11.157016,2.725409,0.022595,0.180939,0.548290
0.020000,11.246360,11.935847,11.211533,2.725847,0.021879,-0.035807,0.554282
0.020000,11.292637,11.964685,11.266060,2.726347,0.025032,0.157639,0.560263
0.020000,11.338750,11.993805,11.320599,2.726940,0.029649,0.230850,0.566232
0.020000,11.384699,12.023206,11.375149,2.727487,0.027316,-0.116618,0.572188
0.020000,11.430483,12.052886,11.429712,2.728138,0.032567,0.262519,0.578130
0.020000,11.476102,12.082846,11.484289,2.728846,0.035412,0.142268,0.584058
0.020000,11.516449,12.109668,11.532738,2.422458,-15.319386,-767.739915,0.589433
0.020000,11.561445,12.139965,11.586983,2.712264,14.490267,1490.482637,0.595722
0.020000,11.606427,12.170658,11.641439,2.722802,0.526919,-698.167370,0.601781
0.020000,11.651399,12.201737,11.696105,2.733308,0.525273,-0.082337,0.607610
0.020000,11.696364,12.233193,11.750981,2.743776,0.523408,-0.093202,0.613211
0.020000,11.741326,12.265016,11.806065,2.754203,0.521361,-0.102353,0.618583
0.020000,11.786289,12.297195,11.861356,2.764586,0.519164,-0.109878,0.623729
0.020000,11.831257,12.329721,11.916855,2.774923,0.516846,-0.115870,0.628649
0.020000,11.876234,12.362585,11.972559,2.785212,0.514438,-0.120416,0.633343
0.020000,11.921225,12.395776,12.028468,2.795451,0.511966,-0.123609,0.637814
0.020000,11.966234,12.429284,12.084581,2.805640,0.509455,-0.125533,0.642063
0.020000,12.011267,12.463101,12.140897,2.815779,0.506930,-0.126276,0.646089
0.020000,12.056327,12.497215,12.197414,2.825867,0.504411,-0.125920,0.649895
0.020000,12.101421,12.531617,12.254132,2.835906,0.501920,-0.124546,0.653482
0.020000,12.146553,12.566297,12.311050,2.845895,0.499476,-0.122230,0.656851
0.020000,12.191729,12.601246,12.368167,2.855837,0.497095,-0.119047,0.660002
0.020000,12.236955,12.636454,12.425481,2.865733,0.494794,-0.115068,0.662936
0.020000,12.282236,12.671911,12.482993,2.875584,0.492569,-0.111234,0.665656
0.020000,12.327579,12.707608,12.540701,2.885394,0.490470,-0.104939,0.668161
0.020000,12.372989,12.743534,12.598604,2.895164,0.488509,-0.098062,0.670452
0.020000,12.418473,12.779681,12.656702,2.904897,0.486660,-0.092436,0.672531
0.020000,12.464037,12.816038,12.714994,2.914596,0.484951,-0.085432,0.674398
0.020000,12.509688,12.852597,12.773479,2.924264,0.483392,-0.077993,0.676053
0.020000,12.555432,12.889347,12.832157,2.933904,0.481988,-0.070171,0.677498
0.020000,12.601277,12.926278,12.891028,2.943519,0.480748,-0.062014,0.678733
0.020000,12.647230,12.963382,12.950090,2.953112,0.479677,-0.053567,0.679758
0.020000,12.693297,13.000649,13.009344,2.962688,0.478779,-0.044876,0.680573
0.020000,12.739487,13.038069,13.068789,2.972249,0.478059,-0.035984,0.681180
0.020000,12.785805,13.075633,13.128425,2.981799,0.477521,-0.026932,0.681577
0.020000,12.832262,13.113330,13.188252,2.991343,0.477166,-0.017761,0.681767
0.020000,12.878863,13.151151,13.248269,3.000883,0.476995,-0.008513,0.681747
0.020000,12.925616,13.189087,13.308478,3.010423,0.477011,0.000774,0.681520
0.020000,12.972531,13.227128,13.368877,3.019967,0.477212,0.010060,0.681083
0.020000,13.019615,13.265263,13.429467,3.029519,0.477609,0.019862,0.680438
0.020000,13.066876,13.303484,13.490249,3.039083,0.478182,0.028656,0.679584
0.020000,13.114323,13.341779,13.551222,3.048661,0.478927,0.037225,0.678520
0.020000,13.161964,13.380139,13.612388,3.058259,0.479854,0.046351,0.677247
0.020000,13.209808,13.418554,13.673745,3.067878,0.480954,0.055015,0.675763
0.020000,13.257863,13.457014,13.735296,3.077522,0.482223,0.063429,0.674069
0.020000,13.306139,13.495507,13.797039,3.087195,0.483654,0.071547,0.672163
0.020000,13.354644,13.534024,13.858977,3.096900,0.485240,0.079321,0.670045
0.020000,13.403388,13.572554,13.921110,3.106639,0.486974,0.086703,0.667714
0.020000,13.452379,13.611086,13.983439,3.116416,0.488847,0.093639,0.665169
0.020000,13.501627,13.649609,14.045963,3.126233,0.490848,0.100077,0.662410
0.020000,13.551140,13.688111,14.108685,3.136093,0.492968,0.105958,0.659435
0.020000,13.600929,13.726582,14.171605,3.145997,0.495192,0.111223,0.656244
0.020000,13.651002,13.765009,14.234724,3.155947,0.497508,0.115810,0.652835
0.020000,13.701370,13.803381,14.298043,3.165945,0.499901,0.119653,0.649208
0.020000,13.752040,13.841686,14.361563,3.175992,0.502355,0.122683,0.645361
0.020000,13.803024,13.879911,14.425284,3.186089,0.504852,0.124829,0.641294
0.020000,13.854329,13.918044,14.489209,3.196236,0.507372,0.126016,0.637004
0.020000,13.905966,13.956071,14.553338,3.206434,0.509895,0.126167,0.632492
0.020000,13.957944,13.993980,14.617671,3.216682,0.512399,0.125201,0.627756
0.020000,14.010273,14.031758,14.682211,3.226979,0.514860,0.123037,0.622794
0.020000,14.062960,14.069389,14.746958,3.237324,0.517252,0.119588,0.617607
0.020000,14.116016,14.106861,14.811912,3.247715,0.519547,0.114769,0.612192
0.020000,14.169450,14.144158,14.877075,3.258150,0.521717,0.108490,0.606549
0.020000,14.223270,14.181265,14.942447,3.268624,0.523730,0.100664,0.600678
0.020000,14.277485,14.218169,15.008030,3.279135,0.525554,0.091202,0.594576
0.020000,14.332103,14.254852,15.073824,3.289678,0.527155,0.080015,0.588244
0.020000,14.387133,14.291298,15.139829,3.300248,0.528495,0.067016,0.581681
0.020000,14.442582,14.327493,15.206045,3.310839,0.529537,0.052122,0.574887
0.020000,14.498459,14.363418,15.272474,3.321444,0.530242,0.035254,0.567861
0.020000,14.554770,14.399056,15.339115,3.332055,0.530569,0.016336,0.560603
0.020000,14.611522,14.434390,15.405969,3.342665,0.530475,-0.004698,0.553112
0.020000,14.668723,14.469403,15.473034,3.353263,0.529917,-0.027909,0.545391
0.020000,14.726377,14.504075,15.540311,3.363840,0.528850,-0.053346,0.537438
0.020000,14.784491,14.538388,15.607798,3.374385,0.527229,-0.081044,0.529254
0.020000,14.843069,14.572322,15.675496,3.384885,0.525014,-0.110776,0.520841
0.020000,14.902116,14.605859,15.743403,3.395328,0.522158,-0.142759,0.512200
0.020000,14.961636,14.638979,15.811517,3.405699,0.518560,-0.179934,0.503332
0.020000,15.021631,14.671662,15.879836,3.415985,0.514263,-0.214858,0.494239
0.020000,15.082105,14.703886,15.948360,3.426168,0.509186,-0.253843,0.484924
0.020000,15.143058,14.735632,16.017084,3.436234,0.503287,-0.294936,0.475388
0.020000,15.204491,14.766879,16.086008,3.446165,0.496526,-0.338030,0.465636
0.020000,15.266278,14.797544,16.154985,3.448890,0.136268,-18.012941,0.455690
0.020000,15.327997,14.827408,16.223551,3.428251,-1.031960,-58.411381,0.445624
0.020000,15.389342,14.856332,16.291372,3.391076,-1.858745,-41.339272,0.435497
0.020000,15.450292,14.884315,16.358439,3.353344,-1.886605,-1.392973,0.425321
0.020000,15.510824,14.911364,16.424740,3.315051,-1.914661,-1.402792,0.415106
0.020000,15.570918,14.937483,16.490264,3.276213,-1.941862,-1.360039,0.404867
0.020000,15.630551,14.962677,16.555001,3.236827,-1.969324,-1.373139,0.394614
0.020000,15.689700,14.986956,16.618939,3.196912,-1.995727,-1.320129,0.384359
0.020000,15.748343,15.010328,16.682068,3.156469,-2.022168,-1.322042,0.374114
0.020000,15.806459,15.032803,16.744379,3.115510,-2.047971,-1.290178,0.363890
0.020000,15.864025,15.054392,16.805860,3.074050,-2.072993,-1.251068,0.353698
0.020000,15.921019,15.075108,16.866502,3.032108,-2.097082,-1.204467,0.343549
0.020000,15.977420,15.094965,16.926296,2.989693,-2.120768,-1.184313,0.333452
0.020000,16.033206,15.113976,16.985232,2.946814,-2.143957,-1.159433,0.323418
0.020000,16.088356,15.132157,17.043302,2.903503,-2.165546,-1.079478,0.313456
0.020000,16.142851,15.149524,17.100497,2.859776,-2.186354,-1.040362,0.303576
0.020000,16.196670,15.166095,17.156810,2.815640,-2.206762,-1.020403,0.293786
0.020000,16.249795,15.181887,17.212233,2.771121,-2.225973,-0.960574,0.284095
0.020000,16.302207,15.196919,17.266757,2.726243,-2.243874,-0.895050,0.274511
0.020000,16.353888,15.211210,17.320378,2.681036,-2.260353,-0.823928,0.265041
0.020000,16.404821,15.224779,17.373087,2.635465,-2.278582,-0.911451,0.255692
0.020000,16.454990,15.237647,17.424880,2.589645,-2.290997,-0.620770,0.246471
0.020000,16.504379,15.249835,17.475750,2.543500,-2.307234,-0.811831,0.237384
0.020000,16.552972,15.261362,17.525693,2.497107,-2.319634,-0.620027,0.228436
0.020000,16.600757,15.272250,17.574702,2.450480,-2.331374,-0.587002,0.219634
0.020000,16.647720,15.282521,17.622775,2.403632,-2.342398,-0.551180,0.210981
0.020000,16.693847,15.292195,17.669906,2.356549,-2.354131,-0.586636,0.202483
0.020000,16.739128,15.301295,17.716092,2.309307,-2.362097,-0.398338,0.194143
0.020000,16.783551,15.309841,17.761330,2.261902,-2.370241,-0.407201,0.185965
0.020000,16.827107,15.317855,17.805617,2.214334,-2.378418,-0.408813,0.177953
0.020000,16.869785,15.325358,17.848949,2.166614,-2.386017,-0.379952,0.170109
0.020000,16.911576,15.332371,17.891325,2.118800,-2.390668,-0.232546,0.162436
0.020000,16.952473,15.338916,17.932742,2.070878,-2.396138,-0.273512,0.154937
0.020000,16.992469,15.345013,17.973200,2.022870,-2.400367,-0.211440,0.147612
0.020000,17.031555,15.350682,18.012695,1.974755,-2.405764,-0.269852,0.140465
0.020000,17.069726,15.355944,18.051227,1.926593,-2.408096,-0.116619,0.133496
0.020000,17.106976,15.360818,18.088795,1.878395,-2.409924,-0.091384,0.126706
0.020000,17.143301,15.365323,18.125398,1.830142,-2.412656,-0.136633,0.120097
0.020000,17.178694,15.369479,18.161034,1.781826,-2.415780,-0.156163,0.113670
0.020000,17.213153,15.373304,18.195705,1.733525,-2.415053,0.036337,0.107424
0.020000,17.246674,15.376816,18.229409,1.685203,-2.416073,-0.050979,0.101359
0.020000,17.279253,15.380033,18.262146,1.636881,-2.416102,-0.001449,0.095478
0.020000,17.310887,15.382971,18.293917,1.588518,-2.418169,-0.103358,0.089778
0.020000,17.341574,15.385648,18.324720,1.540191,-2.416339,0.091478,0.084260
0.020000,17.371313,15.388080,18.354558,1.491896,-2.414785,0.077706,0.078925
0.020000,17.400100,15.390282,18.383430,1.443585,-2.415550,-0.038269,0.073770
0.020000,17.427935,15.392270,18.411336,1.395288,-2.414843,0.035362,0.068797
0.020000,17.454817,15.394057,18.438277,1.347046,-2.412060,0.139163,0.064004
0.020000,17.480744,15.395659,18.464253,1.298823,-2.411182,0.043909,0.059391
0.020000,17.505716,15.397088,18.489266,1.250632,-2.409544,0.081898,0.054957
0.020000,17.529732,15.398358,18.513316,1.202489,-2.407138,0.120272,0.050701
0.020000,17.552791,15.399481,18.536402,1.154324,-2.408265,-0.056323,0.046623
0.020000,17.574894,15.400469,18.558527,1.106252,-2.403584,0.234044,0.042722
0.020000,17.596040,15.401334,18.579691,1.058197,-2.402760,0.041219,0.038997
0.020000,17.616231,15.402085,18.599896,1.010222,-2.398771,0.199436,0.035447
0.020000,17.635464,15.402735,18.619139,0.962195,-2.401315,-0.127226,0.032071
0.020000,17.653741,15.403292,18.637425,0.914272,-2.396159,0.257818,0.028869
0.020000,17.671062,15.403766,18.654753,0.866387,-2.394269,0.094491,0.025839
0.020000,17.687428,15.404166,18.671123,0.818544,-2.392158,0.105546,0.022981
0.020000,17.702838,15.404499,18.686537,0.770686,-2.392864,-0.035267,0.020294
0.020000,17.717294,15.404774,18.700995,0.722902,-2.389195,0.183416,0.017777
0.020000,17.730796,15.404998,18.714499,0.675205,-2.384852,0.217160,0.015430
0.020000,17.743343,15.405178,18.727048,0.627415,-2.389540,-0.234398,0.013251
0.020000,17.754937,15.405320,18.738643,0.579768,-2.382306,0.361690,0.011240
0.020000,17.765579,15.405430,18.749286,0.532130,-2.381946,0.018004,0.009397
0.020000,17.775269,15.405513,18.758975,0.484495,-2.381712,0.011696,0.007720
0.020000,17.784006,15.405574,18.767713,0.436876,-2.380960,0.037592,0.006210
0.020000,17.791792,15.405617,18.775499,0.389282,-2.379687,0.063649,0.004865
0.020000,17.798626,15.405646,18.782333,0.341724,-2.377891,0.089828,0.003685
0.020000,17.804510,15.405665,18.788217,0.294213,-2.375569,0.116093,0.002670
0.020000,17.809444,15.405676,18.793151,0.246690,-2.376141,-0.028609,0.001820
0.020000,17.813427,15.405682,18.797135,0.199166,-2.376199,-0.002867,0.001133
0.020000,17.816461,15.405685,18.800168,0.151669,-2.374882,0.065838,0.000611
0.020000,17.818545,15.405685,18.802252,0.104208,-2.373042,0.091982,0.000252
0.020000,17.819679,15.405686,18.803387,0.056725,-2.374129,-0.054361,0.000057
0.020000,17.820009,15.405686,18.803716,0.016490,-2.011773,18.117823,6.283185
0.020000,17.820009,15.405686,18.803716,0.000000,-0.824489,59.364174,6.283185
